2024/09/15_15:06:13,1.093708132,1.273197475e-313,0
2024/09/15_15:06:13,1.089434653,1.273197475e-313,0
2024/09/15_15:06:13,1.079710294,1.273197475e-313,0
2024/09/15_15:06:13,1.064373885,1.273197475e-313,0
2024/09/15_15:06:13,1.043369192,1.273197475e-313,0
2024/09/15_15:06:13,1.01699839,1.273197475e-313,0
2024/09/15_15:06:13,0.9855689611,1.273197475e-313,0
2024/09/15_15:06:13,0.9493892668,1.273197475e-313,0
2024/09/15_15:06:13,0.9087685488,1.273197475e-313,0
2024/09/15_15:06:13,0.8640169285,1.273197475e-313,0
2024/09/15_15:06:13,0.8154454069,1.273197475e-313,0
2024/09/15_15:06:13,0.7634076631,1.273197475e-313,0
2024/09/15_15:06:13,0.7084300305,1.273197475e-313,0
2024/09/15_15:06:13,0.6510838417,1.273197475e-313,0
2024/09/15_15:06:13,0.5919413094,1.273197475e-313,0
2024/09/15_15:06:13,0.531575526,1.273197475e-313,0
2024/09/15_15:06:13,0.4705604635,1.273197475e-313,0
2024/09/15_15:06:13,0.4094709737,1.273197475e-313,0
2024/09/15_15:06:13,0.3488827882,1.273197475e-313,0
2024/09/15_15:06:13,0.2893725183,1.273197475e-313,0
2024/09/15_15:06:13,0.2315176549,1.273197475e-313,0
2024/09/15_15:06:13,0.1758541636,1.273197475e-313,0
2024/09/15_15:06:13,0.1227279879,1.273197475e-313,0
2024/09/15_15:06:13,0.07226310324,1.273197475e-313,0
2024/09/15_15:06:13,0.02447421804,1.273197475e-313,0
2024/09/15_15:06:13,-0.02063544393,1.273197475e-313,0
2024/09/15_15:06:13,-0.06307760812,1.273197475e-313,0
2024/09/15_15:06:13,-0.1028789493,1.273197475e-313,0
2024/09/15_15:06:13,-0.1400810913,1.273197475e-313,0
2024/09/15_15:06:13,-0.1747406076,1.273197475e-313,0
2024/09/15_15:06:13,-0.2069290205,1.273197475e-313,0
2024/09/15_15:06:13,-0.2367066164,1.273197475e-313,0
2024/09/15_15:06:13,-0.2640350378,1.273197475e-313,0
2024/09/15_15:06:13,-0.288860082,1.273197475e-313,0
2024/09/15_15:06:13,-0.3111424952,1.273197475e-313,0
2024/09/15_15:06:13,-0.3308579726,1.273197475e-313,0
2024/09/15_15:06:13,-0.3479971588,1.273197475e-313,0
2024/09/15_15:06:13,-0.3625656477,1.273197475e-313,0
2024/09/15_15:06:13,-0.3745839823,1.273197475e-313,0
2024/09/15_15:06:13,-0.384087655,1.273197475e-313,0
2024/09/15_15:06:13,-0.3911271075,1.273197475e-313,0
2024/09/15_15:06:13,-0.3957718756,1.273197475e-313,0
2024/09/15_15:06:13,-0.3981249182,1.273197475e-313,0
2024/09/15_15:06:13,-0.3983092887,1.273197475e-313,0
2024/09/15_15:06:13,-0.3964629897,1.273197475e-313,0
2024/09/15_15:06:13,-0.3927389732,1.273197475e-313,0
2024/09/15_15:06:13,-0.3873051406,1.273197475e-313,0
2024/09/15_15:06:13,-0.3803443422,1.273197475e-313,0
2024/09/15_15:06:13,-0.372054378,1.273197475e-313,0
2024/09/15_15:06:13,-0.3626366258,1.273197475e-313,0
2024/09/15_15:06:13,-0.3521962303,1.273197475e-313,0
2024/09/15_15:06:13,-0.3408609429,1.273197475e-313,0
2024/09/15_15:06:13,-0.3288104831,1.273197475e-313,0
2024/09/15_15:06:13,-0.3162295061,1.273197475e-313,0
2024/09/15_15:06:13,-0.3032943202,1.273197475e-313,0
2024/09/15_15:06:13,-0.2901728859,1.273197475e-313,0
2024/09/15_15:06:13,-0.2770248162,1.273197475e-313,0
2024/09/15_15:06:13,-0.2640013762,1.273197475e-313,0
2024/09/15_15:06:13,-0.2512454832,1.273197475e-313,0
2024/09/15_15:06:13,-0.2388917068,1.273197475e-313,0
2024/09/15_15:06:13,-0.2270662689,1.273197475e-313,0
2024/09/15_15:06:13,-0.215871567,1.273197475e-313,0
2024/09/15_15:06:13,-0.2053288255,1.273197475e-313,0
2024/09/15_15:06:13,-0.1954295202,1.273197475e-313,0
2024/09/15_15:06:13,-0.1861567761,1.273197475e-313,0
2024/09/15_15:06:13,-0.1774853707,1.273197475e-313,0
2024/09/15_15:06:13,-0.1693817336,1.273197475e-313,0
2024/09/15_15:06:13,-0.1618039466,1.273197475e-313,0
2024/09/15_15:06:13,-0.1547017439,1.273197475e-313,0
2024/09/15_15:06:13,-0.1480165119,1.273197475e-313,0
2024/09/15_15:06:13,-0.1416812892,1.273197475e-313,0
2024/09/15_15:06:13,-0.1356372717,1.273197475e-313,0
2024/09/15_15:06:13,-0.1298971121,1.273197475e-313,0
2024/09/15_15:06:13,-0.1244892035,1.273197475e-313,0
2024/09/15_15:06:13,-0.1194335959,1.273197475e-313,0
2024/09/15_15:06:13,-0.1147419917,1.273197475e-313,0
2024/09/15_15:06:13,-0.1104177458,1.273197475e-313,0
2024/09/15_15:06:13,-0.1064558649,1.273197475e-313,0
2024/09/15_15:06:13,-0.1028430084,1.273197475e-313,0
2024/09/15_15:06:13,-0.09955748765,1.273197475e-313,0
2024/09/15_15:06:13,-0.09658478396,1.273197475e-313,0
2024/09/15_15:06:13,-0.09402435823,1.273197475e-313,0
2024/09/15_15:06:13,-0.09188233744,1.273197475e-313,0
2024/09/15_15:06:13,-0.09013034316,1.273197475e-313,0
2024/09/15_15:06:13,-0.08874059609,1.273197475e-313,0
2024/09/15_15:06:13,-0.08768592069,1.273197475e-313,0
2024/09/15_15:06:13,-0.08693974517,1.273197475e-313,0
2024/09/15_15:06:13,-0.08647610154,1.273197475e-313,0
2024/09/15_15:06:13,-0.08626962552,1.273197475e-313,0
2024/09/15_15:06:13,-0.08629555662,1.273197475e-313,0
2024/09/15_15:06:13,-0.0865297381,1.273197475e-313,0
2024/09/15_15:06:13,-0.08694324033,1.273197475e-313,0
2024/09/15_15:06:13,-0.08748028298,1.273197475e-313,0
2024/09/15_15:06:13,-0.08807694928,1.273197475e-313,0
2024/09/15_15:06:13,-0.08866992252,1.273197475e-313,0
2024/09/15_15:06:13,-0.08919648974,1.273197475e-313,0
2024/09/15_15:06:13,-0.08959454175,1.273197475e-313,0
2024/09/15_15:06:13,-0.08980257312,1.273197475e-313,0
2024/09/15_15:06:13,-0.08975968218,1.273197475e-313,0
2024/09/15_15:06:13,-0.08940557101,1.273197475e-313,0
2024/09/15_15:06:13,-0.08868054546,1.273197475e-313,0
2024/09/15_15:06:13,-0.08753976627,1.273197475e-313,0
2024/09/15_15:06:13,-0.08601380047,1.273197475e-313,0
2024/09/15_15:06:13,-0.08415832329,1.273197475e-313,0
2024/09/15_15:06:13,-0.08202964143,1.273197475e-313,0
2024/09/15_15:06:13,-0.07968466537,1.273197475e-313,0
2024/09/15_15:06:13,-0.07718090931,1.273197475e-313,0
2024/09/15_15:06:13,-0.07457649126,1.273197475e-313,0
2024/09/15_15:06:13,-0.07193013294,1.273197475e-313,0
2024/09/15_15:06:13,-0.06930115987,1.273197475e-313,0
2024/09/15_15:06:13,-0.06674950131,1.273197475e-313,0
2024/09/15_15:06:13,-0.06432613944,1.273197475e-313,0
2024/09/15_15:06:13,-0.06203114359,1.273197475e-313,0
2024/09/15_15:06:13,-0.05984789483,1.273197475e-313,0
2024/09/15_15:06:13,-0.05776036526,1.273197475e-313,0
2024/09/15_15:06:13,-0.05575241833,1.273197475e-313,0
2024/09/15_15:06:13,-0.05379580504,1.273197475e-313,0
2024/09/15_15:06:13,-0.05186609918,1.273197475e-313,0
2024/09/15_15:06:13,-0.04994250518,1.273197475e-313,0
2024/09/15_15:06:13,-0.04800426933,1.273197475e-313,0
2024/09/15_15:06:13,-0.04603067969,1.273197475e-313,0
2024/09/15_15:06:13,-0.0440014297,1.273197475e-313,0
2024/09/15_15:06:13,-0.04189827041,1.273197475e-313,0
2024/09/15_15:06:13,-0.0397036893,1.273197475e-313,0
2024/09/15_15:06:13,-0.03740021634,1.273197475e-313,0
2024/09/15_15:06:13,-0.03497042329,1.273197475e-313,0
2024/09/15_15:06:13,-0.03239692372,1.273197475e-313,0
2024/09/15_15:06:13,-0.02966237303,1.273197475e-313,0
2024/09/15_15:06:13,-0.0267494684,1.273197475e-313,0
2024/09/15_15:06:13,-0.02364094884,1.273197475e-313,0
2024/09/15_15:06:13,-0.02031959516,1.273197475e-313,0
2024/09/15_15:06:13,-0.01677948551,1.273197475e-313,0
2024/09/15_15:06:13,-0.01307889357,1.273197475e-313,0
2024/09/15_15:06:13,-0.009298830635,1.273197475e-313,0
2024/09/15_15:06:13,-0.00552037612,1.273197475e-313,0
2024/09/15_15:06:13,-0.001824651231,1.273197475e-313,0
2024/09/15_15:06:13,0.001707181013,1.273197475e-313,0
2024/09/15_15:06:13,0.004993915784,1.273197475e-313,0
2024/09/15_15:06:13,0.007954306444,1.273197475e-313,0
2024/09/15_15:06:13,0.01050706455,1.273197475e-313,0
2024/09/15_15:06:13,0.01257085983,1.273197475e-313,0
2024/09/15_15:06:13,0.01408931519,1.273197475e-313,0
2024/09/15_15:06:13,0.0151524809,1.273197475e-313,0
2024/09/15_15:06:13,0.01590355414,1.273197475e-313,0
2024/09/15_15:06:13,0.01648576548,1.273197475e-313,0
2024/09/15_15:06:13,0.01704230362,1.273197475e-313,0
2024/09/15_15:06:13,0.01771631549,1.273197475e-313,0
2024/09/15_15:06:13,0.0186509062,1.273197475e-313,0
2024/09/15_15:06:13,0.01998913904,1.273197475e-313,0
2024/09/15_15:06:13,0.02187403551,1.273197475e-313,0
2024/09/15_15:06:13,0.02444857529,1.273197475e-313,0
2024/09/15_15:06:13,0.02782488146,1.273197475e-313,0
2024/09/15_15:06:13,0.03192936707,1.273197475e-313,0
2024/09/15_15:06:13,0.03661920174,1.273197475e-313,0
2024/09/15_15:06:13,0.04175139575,1.273197475e-313,0
2024/09/15_15:06:13,0.04718291755,1.273197475e-313,0
2024/09/15_15:06:13,0.05277069379,1.273197475e-313,0
2024/09/15_15:06:13,0.05837160933,1.273197475e-313,0
2024/09/15_15:06:13,0.06384250718,1.273197475e-313,0
2024/09/15_15:06:13,0.06904018859,1.273197475e-313,0
2024/09/15_15:06:13,0.07382141295,1.273197475e-313,0
2024/09/15_15:06:13,0.07807126148,1.273197475e-313,0
2024/09/15_15:06:13,0.08185051516,1.273197475e-313,0
2024/09/15_15:06:13,0.08528713555,1.273197475e-313,0
2024/09/15_15:06:13,0.08850917793,1.273197475e-313,0
2024/09/15_15:06:13,0.09164465576,1.273197475e-313,0
2024/09/15_15:06:13,0.09482154068,1.273197475e-313,0
2024/09/15_15:06:13,0.09816776254,1.273197475e-313,0
2024/09/15_15:06:13,0.1018112094,1.273197475e-313,0
2024/09/15_15:06:13,0.1058884185,1.273197475e-313,0
2024/09/15_15:06:13,0.1105362424,1.273197475e-313,0
2024/09/15_15:06:13,0.1158533582,1.273197475e-313,0
2024/09/15_15:06:13,0.1217694327,1.273197475e-313,0
2024/09/15_15:06:13,0.1281478231,1.273197475e-313,0
2024/09/15_15:06:13,0.1348517597,1.273197475e-313,0
2024/09/15_15:06:13,0.1417445021,1.273197475e-313,0
2024/09/15_15:06:13,0.1486893397,1.273197475e-313,0
2024/09/15_15:06:13,0.1555495911,1.273197475e-313,0
2024/09/15_15:06:13,0.162188605,1.273197475e-313,0
2024/09/15_15:06:13,0.1684697592,1.273197475e-313,0
2024/09/15_15:06:13,0.1742564614,1.273197475e-313,0
2024/09/15_15:06:13,0.1794329948,1.273197475e-313,0
2024/09/15_15:06:13,0.1840203101,1.273197475e-313,0
2024/09/15_15:06:13,0.1880944175,1.273197475e-313,0
2024/09/15_15:06:13,0.1917315079,1.273197475e-313,0
2024/09/15_15:06:13,0.1950078021,1.273197475e-313,0
2024/09/15_15:06:13,0.19799955,1.273197475e-313,0
2024/09/15_15:06:13,0.2007830315,1.273197475e-313,0
2024/09/15_15:06:13,0.2034345557,1.273197475e-313,0
2024/09/15_15:06:13,0.2060304617,1.273197475e-313,0
2024/09/15_15:06:13,0.2086471178,1.273197475e-313,0
2024/09/15_15:06:13,0.2113558885,1.273197475e-313,0
2024/09/15_15:06:13,0.2141942266,1.273197475e-313,0
2024/09/15_15:06:13,0.2171855903,1.273197475e-313,0
2024/09/15_15:06:13,0.2203534228,1.273197475e-313,0
2024/09/15_15:06:13,0.2237211971,1.273197475e-313,0
2024/09/15_15:06:13,0.2273124155,1.273197475e-313,0
2024/09/15_15:06:13,0.2311506101,1.273197475e-313,0
2024/09/15_15:06:13,0.2352593425,1.273197475e-313,0
2024/09/15_15:06:13,0.2396622039,1.273197475e-313,0
2024/09/15_15:06:13,0.2443828151,1.273197475e-313,0
2024/09/15_15:06:13,0.2494320097,1.273197475e-313,0
2024/09/15_15:06:13,0.2547317318,1.273197475e-313,0
2024/09/15_15:06:13,0.2601662901,1.273197475e-313,0
2024/09/15_15:06:13,0.2656199915,1.273197475e-313,0
2024/09/15_15:06:13,0.2709771945,1.273197475e-313,0
2024/09/15_15:06:13,0.2761222683,1.273197475e-313,0
2024/09/15_15:06:13,0.2809396059,1.273197475e-313,0
2024/09/15_15:06:13,0.2853136298,1.273197475e-313,0
2024/09/15_15:06:13,0.2891287922,1.273197475e-313,0
2024/09/15_15:06:13,0.2922695749,1.273197475e-313,0
2024/09/15_15:06:13,0.2946458077,1.273197475e-313,0
2024/09/15_15:06:13,0.2963481093,1.273197475e-313,0
2024/09/15_15:06:13,0.2975457207,1.273197475e-313,0
2024/09/15_15:06:13,0.2984082343,1.273197475e-313,0
2024/09/15_15:06:13,0.2991052719,1.273197475e-313,0
2024/09/15_15:06:13,0.299806485,1.273197475e-313,0
2024/09/15_15:06:13,0.3006815544,1.273197475e-313,0
2024/09/15_15:06:13,0.3019001908,1.273197475e-313,0
2024/09/15_15:06:13,0.3036321345,1.273197475e-313,0
2024/09/15_15:06:13,0.306047155,1.273197475e-313,0
2024/09/15_15:06:13,0.3092852024,1.273197475e-313,0
2024/09/15_15:06:13,0.3132669229,1.273197475e-313,0
2024/09/15_15:06:13,0.3178151818,1.273197475e-313,0
2024/09/15_15:06:13,0.3227524233,1.273197475e-313,0
2024/09/15_15:06:13,0.327901121,1.273197475e-313,0
2024/09/15_15:06:13,0.3330837781,1.273197475e-313,0
2024/09/15_15:06:13,0.3381229275,1.273197475e-313,0
2024/09/15_15:06:13,0.3428411316,1.273197475e-313,0
2024/09/15_15:06:13,0.3470609823,1.273197475e-313,0
2024/09/15_15:06:13,0.3506051012,1.273197475e-313,0
2024/09/15_15:06:13,0.3533244668,1.273197475e-313,0
2024/09/15_15:06:13,0.3552843571,1.273197475e-313,0
2024/09/15_15:06:13,0.3566480732,1.273197475e-313,0
2024/09/15_15:06:13,0.3575794515,1.273197475e-313,0
2024/09/15_15:06:13,0.3582423579,1.273197475e-313,0
2024/09/15_15:06:13,0.3588006881,1.273197475e-313,0
2024/09/15_15:06:13,0.3594183672,1.273197475e-313,0
2024/09/15_15:06:13,0.36025935,1.273197475e-313,0
2024/09/15_15:06:13,0.3614876206,1.273197475e-313,0
2024/09/15_15:06:13,0.3632671931,1.273197475e-313,0
2024/09/15_15:06:13,0.3657345272,1.273197475e-313,0
2024/09/15_15:06:13,0.3688112926,1.273197475e-313,0
2024/09/15_15:06:13,0.3723184436,1.273197475e-313,0
2024/09/15_15:06:13,0.3760763852,1.273197475e-313,0
2024/09/15_15:06:13,0.3799055516,1.273197475e-313,0
2024/09/15_15:06:13,0.383626407,1.273197475e-313,0
2024/09/15_15:06:13,0.3870594449,1.273197475e-313,0
2024/09/15_15:06:13,0.3900251884,1.273197475e-313,0
2024/09/15_15:06:13,0.3923441904,1.273197475e-313,0
2024/09/15_15:06:13,0.3938370331,1.273197475e-313,0
2024/09/15_15:06:13,0.3943504605,1.273197475e-313,0
2024/09/15_15:06:13,0.393940826,1.273197475e-313,0
2024/09/15_15:06:13,0.3927652913,1.273197475e-313,0
2024/09/15_15:06:13,0.3909816898,1.273197475e-313,0
2024/09/15_15:06:13,0.3887478846,1.273197475e-313,0
2024/09/15_15:06:13,0.386221768,1.273197475e-313,0
2024/09/15_15:06:13,0.3835612572,1.273197475e-313,0
2024/09/15_15:06:13,0.3809111416,1.273197475e-313,0
2024/09/15_15:06:13,0.3784208581,1.273197475e-313,0
2024/09/15_15:06:13,0.3762537216,1.273197475e-313,0
2024/09/15_15:06:13,0.374553864,1.273197475e-313,0
2024/09/15_15:06:13,0.3733072517,1.273197475e-313,0
2024/09/15_15:06:13,0.3724218531,1.273197475e-313,0
2024/09/15_15:06:13,0.3718050478,1.273197475e-313,0
2024/09/15_15:06:13,0.3713641742,1.273197475e-313,0
2024/09/15_15:06:13,0.3710065297,1.273197475e-313,0
2024/09/15_15:06:13,0.3706393704,1.273197475e-313,0
2024/09/15_15:06:13,0.3701699113,1.273197475e-313,0
2024/09/15_15:06:13,0.3695053264,1.273197475e-313,0
2024/09/15_15:06:13,0.3685527485,1.273197475e-313,0
2024/09/15_15:06:13,0.3672256894,1.273197475e-313,0
2024/09/15_15:06:13,0.3654922564,1.273197475e-313,0
2024/09/15_15:06:13,0.3633481297,1.273197475e-313,0
2024/09/15_15:06:13,0.3607891619,1.273197475e-313,0
2024/09/15_15:06:13,0.3578111641,1.273197475e-313,0
2024/09/15_15:06:13,0.3544099065,1.273197475e-313,0
2024/09/15_15:06:13,0.3505811182,1.273197475e-313,0
2024/09/15_15:06:13,0.346320487,1.273197475e-313,0
2024/09/15_15:06:13,0.3416236598,1.273197475e-313,0
2024/09/15_15:06:13,0.3364862421,1.273197475e-313,0
2024/09/15_15:06:13,0.330913673,1.273197475e-313,0
2024/09/15_15:06:13,0.3249979442,1.273197475e-313,0
2024/09/15_15:06:13,0.3188758692,1.273197475e-313,0
2024/09/15_15:06:13,0.3126845996,1.273197475e-313,0
2024/09/15_15:06:13,0.3065612458,1.273197475e-313,0
2024/09/15_15:06:13,0.3006428771,1.273197475e-313,0
2024/09/15_15:06:13,0.2950665217,1.273197475e-313,0
2024/09/15_15:06:13,0.2899691667,1.273197475e-313,0
2024/09/15_15:06:13,0.2854877579,1.273197475e-313,0
2024/09/15_15:06:13,0.2817592002,1.273197475e-313,0
2024/09/15_15:06:13,0.2788950931,1.273197475e-313,0
2024/09/15_15:06:13,0.2767786416,1.273197475e-313,0
2024/09/15_15:06:13,0.2751717472,1.273197475e-313,0
2024/09/15_15:06:13,0.2738351523,1.273197475e-313,0
2024/09/15_15:06:13,0.2725295586,1.273197475e-313,0
2024/09/15_15:06:13,0.2710156264,1.273197475e-313,0
2024/09/15_15:06:13,0.2690539749,1.273197475e-313,0
2024/09/15_15:06:13,0.2664051823,1.273197475e-313,0
2024/09/15_15:06:13,0.2628297854,1.273197475e-313,0
2024/09/15_15:06:13,0.2580882803,1.273197475e-313,0
2024/09/15_15:06:13,0.2519766992,1.273197475e-313,0
2024/09/15_15:06:13,0.2446225552,1.273197475e-313,0
2024/09/15_15:06:13,0.2363337531,1.273197475e-313,0
2024/09/15_15:06:13,0.2274199382,1.273197475e-313,0
2024/09/15_15:06:13,0.2181906115,1.273197475e-313,0
2024/09/15_15:06:13,0.208955207,1.273197475e-313,0
2024/09/15_15:06:13,0.2000231176,1.273197475e-313,0
2024/09/15_15:06:13,0.191703695,1.273197475e-313,0
2024/09/15_15:06:13,0.1843062499,1.273197475e-313,0
2024/09/15_15:06:13,0.1781400519,1.273197475e-313,0
2024/09/15_15:06:13,0.1734772542,1.273197475e-313,0
2024/09/15_15:06:13,0.1702337115,1.273197475e-313,0
2024/09/15_15:06:13,0.1681265292,1.273197475e-313,0
2024/09/15_15:06:13,0.1668706148,1.273197475e-313,0
2024/09/15_15:06:13,0.1661808345,1.273197475e-313,0
2024/09/15_15:06:13,0.1657720133,1.273197475e-313,0
2024/09/15_15:06:13,0.1653589352,1.273197475e-313,0
2024/09/15_15:06:13,0.164656343,1.273197475e-313,0
2024/09/15_15:06:13,0.1633789384,1.273197475e-313,0
2024/09/15_15:06:13,0.161241382,1.273197475e-313,0
2024/09/15_15:06:13,0.1579867364,1.273197475e-313,0
2024/09/15_15:06:13,0.1536399432,1.273197475e-313,0
2024/09/15_15:06:13,0.1483870374,1.273197475e-313,0
2024/09/15_15:06:13,0.1424159034,1.273197475e-313,0
2024/09/15_15:06:13,0.1359143845,1.273197475e-313,0
2024/09/15_15:06:13,0.1290702829,1.273197475e-313,0
2024/09/15_15:06:13,0.1220713595,1.273197475e-313,0
2024/09/15_15:06:13,0.1151053342,1.273197475e-313,0
2024/09/15_15:06:13,0.1083598857,1.273197475e-313,0
2024/09/15_15:06:13,0.1020226518,1.273197475e-313,0
2024/09/15_15:06:13,0.09626764102,1.273197475e-313,0
2024/09/15_15:06:13,0.09112986295,1.273197475e-313,0
2024/09/15_15:06:13,0.08656290418,1.273197475e-313,0
2024/09/15_15:06:13,0.08251928118,1.273197475e-313,0
2024/09/15_15:06:13,0.07895146931,1.273197475e-313,0
2024/09/15_15:06:13,0.07581190278,1.273197475e-313,0
2024/09/15_15:06:13,0.07305297469,1.273197475e-313,0
2024/09/15_15:06:13,0.07062703701,1.273197475e-313,0
2024/09/15_15:06:13,0.06848640059,1.273197475e-313,0
2024/09/15_15:06:13,0.06658333514,1.273197475e-313,0
2024/09/15_15:06:13,0.06486918229,1.273197475e-313,0
2024/09/15_15:06:13,0.06328588079,1.273197475e-313,0
2024/09/15_15:06:13,0.06176971068,1.273197475e-313,0
2024/09/15_15:06:13,0.0602568345,1.273197475e-313,0
2024/09/15_15:06:13,0.05868337368,1.273197475e-313,0
2024/09/15_15:06:13,0.05698540851,1.273197475e-313,0
2024/09/15_15:06:13,0.05509897817,1.273197475e-313,0
2024/09/15_15:06:13,0.05296008071,1.273197475e-313,0
2024/09/15_15:06:13,0.05050467304,1.273197475e-313,0
2024/09/15_15:06:13,0.04766867096,1.273197475e-313,0
2024/09/15_15:06:13,0.04439534792,1.273197475e-313,0
2024/09/15_15:06:13,0.0407085568,1.273197475e-313,0
2024/09/15_15:06:13,0.03668167262,1.273197475e-313,0
2024/09/15_15:06:13,0.0323887519,1.273197475e-313,0
2024/09/15_15:06:13,0.02790381006,1.273197475e-313,0
2024/09/15_15:06:13,0.02330082137,1.273197475e-313,0
2024/09/15_15:06:13,0.01865371897,1.273197475e-313,0
2024/09/15_15:06:13,0.01403639491,1.273197475e-313,0
2024/09/15_15:06:13,0.009522700076,1.273197475e-313,0
2024/09/15_15:06:13,0.00518644425,1.273197475e-313,0
2024/09/15_15:06:13,0.00109632984,1.273197475e-313,0
2024/09/15_15:06:13,-0.002735992233,1.273197475e-313,0
2024/09/15_15:06:13,-0.006334817475,1.273197475e-313,0
2024/09/15_15:06:13,-0.009725042802,1.273197475e-313,0
2024/09/15_15:06:13,-0.01293160626,1.273197475e-313,0
2024/09/15_15:06:13,-0.015979487,1.273197475e-313,0
2024/09/15_15:06:13,-0.01889370534,1.273197475e-313,0
2024/09/15_15:06:13,-0.02169932267,1.273197475e-313,0
2024/09/15_15:06:13,-0.02442144156,1.273197475e-313,0
2024/09/15_15:06:13,-0.02708466785,1.273197475e-313,0
2024/09/15_15:06:13,-0.02971073538,1.273197475e-313,0
2024/09/15_15:06:13,-0.03228763351,1.273197475e-313,0
2024/09/15_15:06:13,-0.03478075783,1.273197475e-313,0
2024/09/15_15:06:13,-0.03715511652,1.273197475e-313,0
2024/09/15_15:06:13,-0.0393757071,1.273197475e-313,0
2024/09/15_15:06:13,-0.04140751639,1.273197475e-313,0
2024/09/15_15:06:13,-0.04321552056,1.273197475e-313,0
2024/09/15_15:06:13,-0.04476468508,1.273197475e-313,0
2024/09/15_15:06:13,-0.04601996475,1.273197475e-313,0
2024/09/15_15:06:13,-0.04694630369,1.273197475e-313,0
2024/09/15_15:06:13,-0.04751457845,1.273197475e-313,0
2024/09/15_15:06:13,-0.0477670522,1.273197475e-313,0
2024/09/15_15:06:13,-0.04779316066,1.273197475e-313,0
2024/09/15_15:06:13,-0.04768316715,1.273197475e-313,0
2024/09/15_15:06:13,-0.04752732432,1.273197475e-313,0
2024/09/15_15:06:13,-0.04741587413,1.273197475e-313,0
2024/09/15_15:06:13,-0.0474390479,1.273197475e-313,0
2024/09/15_15:06:13,-0.04768706621,1.273197475e-313,0
2024/09/15_15:06:13,-0.04825013902,1.273197475e-313,0
2024/09/15_15:06:13,-0.04921846558,1.273197475e-313,0
2024/09/15_15:06:13,-0.05067179168,1.273197475e-313,0
2024/09/15_15:06:13,-0.05256015995,1.273197475e-313,0
2024/09/15_15:06:13,-0.05474581466,1.273197475e-313,0
2024/09/15_15:06:13,-0.05708932977,1.273197475e-313,0
2024/09/15_15:06:13,-0.05945126857,1.273197475e-313,0
2024/09/15_15:06:13,-0.06169218366,1.273197475e-313,0
2024/09/15_15:06:13,-0.06367261697,1.273197475e-313,0
2024/09/15_15:06:13,-0.06525309976,1.273197475e-313,0
2024/09/15_15:06:13,-0.06629415258,1.273197475e-313,0
2024/09/15_15:06:13,-0.06665628534,1.273197475e-313,0
2024/09/15_15:06:13,-0.06621502659,1.273197475e-313,0
2024/09/15_15:06:13,-0.06503892743,1.273197475e-313,0
2024/09/15_15:06:13,-0.06333035417,1.273197475e-313,0
2024/09/15_15:06:13,-0.06129434992,1.273197475e-313,0
2024/09/15_15:06:13,-0.0591359279,1.273197475e-313,0
2024/09/15_15:06:13,-0.0570600139,1.273197475e-313,0
2024/09/15_15:06:13,-0.05527150379,1.273197475e-313,0
2024/09/15_15:06:13,-0.05397528278,1.273197475e-313,0
2024/09/15_15:06:13,-0.05337622277,1.273197475e-313,0
2024/09/15_15:06:13,-0.05367916959,1.273197475e-313,0
2024/09/15_15:06:13,-0.05507049242,1.273197475e-313,0
2024/09/15_15:06:13,-0.0574912496,1.273197475e-313,0
2024/09/15_15:06:13,-0.06070831875,1.273197475e-313,0
2024/09/15_15:06:13,-0.06448485747,1.273197475e-313,0
2024/09/15_15:06:13,-0.06858401267,1.273197475e-313,0
2024/09/15_15:06:13,-0.07276892058,1.273197475e-313,0
2024/09/15_15:06:13,-0.07680270675,1.273197475e-313,0
2024/09/15_15:06:13,-0.08044848607,1.273197475e-313,0
2024/09/15_15:06:13,-0.08346936273,1.273197475e-313,0
2024/09/15_15:06:13,-0.08562843026,1.273197475e-313,0
2024/09/15_15:06:13,-0.08670417998,1.273197475e-313,0
2024/09/15_15:06:13,-0.0866870047,1.273197475e-313,0
2024/09/15_15:06:13,-0.08572137784,1.273197475e-313,0
2024/09/15_15:06:13,-0.0839552372,1.273197475e-313,0
2024/09/15_15:06:13,-0.08153650989,1.273197475e-313,0
2024/09/15_15:06:13,-0.07861311236,1.273197475e-313,0
2024/09/15_15:06:13,-0.07533295038,1.273197475e-313,0
2024/09/15_15:06:13,-0.07184391901,1.273197475e-313,0
2024/09/15_15:06:13,-0.06829390268,1.273197475e-313,0
2024/09/15_15:06:13,-0.06483077511,1.273197475e-313,0
2024/09/15_15:06:13,-0.06159787247,1.273197475e-313,0
2024/09/15_15:06:13,-0.05867405602,1.273197475e-313,0
2024/09/15_15:06:13,-0.05609017328,1.273197475e-313,0
2024/09/15_15:06:13,-0.05387591645,1.273197475e-313,0
2024/09/15_15:06:13,-0.05206096703,1.273197475e-313,0
2024/09/15_15:06:13,-0.05067499586,1.273197475e-313,0
2024/09/15_15:06:13,-0.0497476631,1.273197475e-313,0
2024/09/15_15:06:13,-0.04930861822,1.273197475e-313,0
2024/09/15_15:06:13,-0.04938750001,1.273197475e-313,0
2024/09/15_15:06:13,-0.05001393661,1.273197475e-313,0
2024/09/15_15:06:13,-0.05121122003,1.273197475e-313,0
2024/09/15_15:06:13,-0.05290932235,1.273197475e-313,0
2024/09/15_15:06:13,-0.05496705336,1.273197475e-313,0
2024/09/15_15:06:13,-0.05724142067,1.273197475e-313,0
2024/09/15_15:06:13,-0.05958942119,1.273197475e-313,0
2024/09/15_15:06:13,-0.06186804117,1.273197475e-313,0
2024/09/15_15:06:13,-0.06393425616,1.273197475e-313,0
2024/09/15_15:06:13,-0.06564503107,1.273197475e-313,0
2024/09/15_15:06:13,-0.06685732008,1.273197475e-313,0
2024/09/15_15:06:13,-0.06742806674,1.273197475e-313,0
2024/09/15_15:06:13,-0.0672246112,1.273197475e-313,0
2024/09/15_15:06:13,-0.06627339021,1.273197475e-313,0
2024/09/15_15:06:13,-0.06472506462,1.273197475e-313,0
2024/09/15_15:06:13,-0.06273358333,1.273197475e-313,0
2024/09/15_15:06:13,-0.06045288454,1.273197475e-313,0
2024/09/15_15:06:13,-0.05803689577,1.273197475e-313,0
2024/09/15_15:06:13,-0.05563953389,1.273197475e-313,0
2024/09/15_15:06:13,-0.05341470505,1.273197475e-313,0
2024/09/15_15:06:13,-0.05151630477,1.273197475e-313,0
2024/09/15_15:06:13,-0.05009821784,1.273197475e-313,0
2024/09/15_15:06:13,-0.04930469088,1.273197475e-313,0
2024/09/15_15:06:13,-0.04912734687,1.273197475e-313,0
2024/09/15_15:06:13,-0.04943578038,1.273197475e-313,0
2024/09/15_15:06:13,-0.05009616303,1.273197475e-313,0
2024/09/15_15:06:13,-0.05097465572,1.273197475e-313,0
2024/09/15_15:06:13,-0.05193740869,1.273197475e-313,0
2024/09/15_15:06:13,-0.05285056151,1.273197475e-313,0
2024/09/15_15:06:13,-0.05358024305,1.273197475e-313,0
2024/09/15_15:06:13,-0.05399257152,1.273197475e-313,0
2024/09/15_15:06:13,-0.05395365445,1.273197475e-313,0
2024/09/15_15:06:13,-0.05333919188,1.273197475e-313,0
2024/09/15_15:06:13,-0.0521827918,1.273197475e-313,0
2024/09/15_15:06:13,-0.05064733107,1.273197475e-313,0
2024/09/15_15:06:13,-0.0488994792,1.273197475e-313,0
2024/09/15_15:06:13,-0.047105771,1.273197475e-313,0
2024/09/15_15:06:13,-0.04543195277,1.273197475e-313,0
2024/09/15_15:06:13,-0.04404465869,1.273197475e-313,0
2024/09/15_15:06:13,-0.04311073671,1.273197475e-313,0
2024/09/15_15:06:13,-0.04279702913,1.273197475e-313,0
2024/09/15_15:06:13,-0.04327037256,1.273197475e-313,0
2024/09/15_15:06:13,-0.04468586838,1.273197475e-313,0
2024/09/15_15:06:13,-0.04699841025,1.273197475e-313,0
2024/09/15_15:06:13,-0.04999507627,1.273197475e-313,0
2024/09/15_15:06:13,-0.05345775109,1.273197475e-313,0
2024/09/15_15:06:13,-0.05716831367,1.273197475e-313,0
2024/09/15_15:06:13,-0.06090863729,1.273197475e-313,0
2024/09/15_15:06:13,-0.06446058959,1.273197475e-313,0
2024/09/15_15:06:13,-0.0676060325,1.273197475e-313,0
2024/09/15_15:06:13,-0.07012682231,1.273197475e-313,0
2024/09/15_15:06:13,-0.0718048096,1.273197475e-313,0
2024/09/15_15:06:13,-0.0724339919,1.273197475e-313,0
2024/09/15_15:06:13,-0.07202376733,1.273197475e-313,0
2024/09/15_15:06:13,-0.07076839107,1.273197475e-313,0
2024/09/15_15:06:13,-0.06886811168,1.273197475e-313,0
2024/09/15_15:06:13,-0.06652317201,1.273197475e-313,0
2024/09/15_15:06:13,-0.06393380926,1.273197475e-313,0
2024/09/15_15:06:13,-0.06130025496,1.273197475e-313,0
2024/09/15_15:06:13,-0.05882273495,1.273197475e-313,0
2024/09/15_15:06:13,-0.05670146942,1.273197475e-313,0
2024/09/15_15:06:13,-0.05513667287,1.273197475e-313,0
2024/09/15_15:06:13,-0.05431840842,1.273197475e-313,0
2024/09/15_15:06:13,-0.05424987008,1.273197475e-313,0
2024/09/15_15:06:13,-0.05477005578,1.273197475e-313,0
2024/09/15_15:06:13,-0.0557123705,1.273197475e-313,0
2024/09/15_15:06:13,-0.05691021349,1.273197475e-313,0
2024/09/15_15:06:13,-0.05819700149,1.273197475e-313,0
2024/09/15_15:06:13,-0.05940623805,1.273197475e-313,0
2024/09/15_15:06:13,-0.06037144415,1.273197475e-313,0
2024/09/15_15:06:13,-0.0609261351,1.273197475e-313,0
2024/09/15_15:06:13,-0.06090382056,1.273197475e-313,0
2024/09/15_15:06:13,-0.06014667506,1.273197475e-313,0
2024/09/15_15:06:13,-0.05866290134,1.273197475e-313,0
2024/09/15_15:06:13,-0.05661006002,1.273197475e-313,0
2024/09/15_15:06:13,-0.05415103088,1.273197475e-313,0
2024/09/15_15:06:13,-0.05144868804,1.273197475e-313,0
2024/09/15_15:06:13,-0.04866589993,1.273197475e-313,0
2024/09/15_15:06:13,-0.04596552932,1.273197475e-313,0
2024/09/15_15:06:13,-0.0435104333,1.273197475e-313,0
2024/09/15_15:06:13,-0.04146346329,1.273197475e-313,0
2024/09/15_15:06:13,-0.03998746504,1.273197475e-313,0
2024/09/15_15:06:13,-0.03923771828,1.273197475e-313,0
2024/09/15_15:06:13,-0.03921888239,1.273197475e-313,0
2024/09/15_15:06:13,-0.03979689284,1.273197475e-313,0
2024/09/15_15:06:13,-0.0408325034,1.273197475e-313,0
2024/09/15_15:06:13,-0.04218646218,1.273197475e-313,0
2024/09/15_15:06:13,-0.04371951161,1.273197475e-313,0
2024/09/15_15:06:13,-0.04529238844,1.273197475e-313,0
2024/09/15_15:06:13,-0.04676582377,1.273197475e-313,0
2024/09/15_15:06:13,-0.048000543,1.273197475e-313,0
2024/09/15_15:06:13,-0.04885726587,1.273197475e-313,0
2024/09/15_15:06:13,-0.04920273196,1.273197475e-313,0
2024/09/15_15:06:13,-0.04902863568,1.273197475e-313,0
2024/09/15_15:06:13,-0.04844449483,1.273197475e-313,0
2024/09/15_15:06:13,-0.04756441922,1.273197475e-313,0
2024/09/15_15:06:13,-0.04650251296,1.273197475e-313,0
2024/09/15_15:06:13,-0.0453728745,1.273197475e-313,0
2024/09/15_15:06:13,-0.0442895966,1.273197475e-313,0
2024/09/15_15:06:13,-0.04336676638,1.273197475e-313,0
2024/09/15_15:06:13,-0.04271846526,1.273197475e-313,0
2024/09/15_15:06:13,-0.042458769,1.273197475e-313,0
2024/09/15_15:06:13,-0.04269649105,1.273197475e-313,0
2024/09/15_15:06:13,-0.04342687597,1.273197475e-313,0
2024/09/15_15:06:13,-0.04453553334,1.273197475e-313,0
2024/09/15_15:06:13,-0.04590359748,1.273197475e-313,0
2024/09/15_15:06:13,-0.04741219706,1.273197475e-313,0
2024/09/15_15:06:13,-0.04894245506,1.273197475e-313,0
2024/09/15_15:06:13,-0.05037548879,1.273197475e-313,0
2024/09/15_15:06:13,-0.0515924099,1.273197475e-313,0
2024/09/15_15:06:13,-0.05247432435,1.273197475e-313,0
2024/09/15_15:06:13,-0.05290233246,1.273197475e-313,0
2024/09/15_15:06:13,-0.05276229332,1.273197475e-313,0
2024/09/15_15:06:13,-0.0520473599,1.273197475e-313,0
2024/09/15_15:06:13,-0.05085672553,1.273197475e-313,0
2024/09/15_15:06:13,-0.04929409164,1.273197475e-313,0
2024/09/15_15:06:13,-0.04746315397,1.273197475e-313,0
2024/09/15_15:06:13,-0.04546760262,1.273197475e-313,0
2024/09/15_15:06:13,-0.04341112201,1.273197475e-313,0
2024/09/15_15:06:13,-0.04139739085,1.273197475e-313,0
2024/09/15_15:06:13,-0.03953008224,1.273197475e-313,0
2024/09/15_15:06:13,-0.03791286356,1.273197475e-313,0
2024/09/15_15:06:13,-0.03664631929,1.273197475e-313,0
2024/09/15_15:06:13,-0.03575873135,1.273197475e-313,0
2024/09/15_15:06:13,-0.03520522463,1.273197475e-313,0
2024/09/15_15:06:13,-0.03493767013,1.273197475e-313,0
2024/09/15_15:06:13,-0.03490793317,1.273197475e-313,0
2024/09/15_15:06:13,-0.03506787344,1.273197475e-313,0
2024/09/15_15:06:13,-0.03536934491,1.273197475e-313,0
2024/09/15_15:06:13,-0.03576419592,1.273197475e-313,0
2024/09/15_15:06:13,-0.03620426911,1.273197475e-313,0
2024/09/15_15:06:13,-0.03664140146,1.273197475e-313,0
2024/09/15_15:06:13,-0.03702808813,1.273197475e-313,0
2024/09/15_15:06:13,-0.03733310143,1.273197475e-313,0
2024/09/15_15:06:13,-0.03754207515,1.273197475e-313,0
2024/09/15_15:06:13,-0.03764141813,1.273197475e-313,0
2024/09/15_15:06:13,-0.03761753357,1.273197475e-313,0
2024/09/15_15:06:13,-0.03745681897,1.273197475e-313,0
2024/09/15_15:06:13,-0.03714566617,1.273197475e-313,0
2024/09/15_15:06:13,-0.03667046133,1.273197475e-313,0
2024/09/15_15:06:13,-0.03601758496,1.273197475e-313,0
2024/09/15_15:06:13,-0.03517346111,1.273197475e-313,0
2024/09/15_15:06:13,-0.03413057185,1.273197475e-313,0
2024/09/15_15:06:13,-0.03291804663,1.273197475e-313,0
2024/09/15_15:06:13,-0.0316036598,1.273197475e-313,0
2024/09/15_15:06:13,-0.03025726602,1.273197475e-313,0
2024/09/15_15:06:13,-0.02894876171,1.273197475e-313,0
2024/09/15_15:06:13,-0.02774808502,1.273197475e-313,0
2024/09/15_15:06:13,-0.02672521586,1.273197475e-313,0
2024/09/15_15:06:13,-0.02595017588,1.273197475e-313,0
2024/09/15_15:06:13,-0.02549302848,1.273197475e-313,0
2024/09/15_15:06:13,-0.0254238788,1.273197475e-313,0
2024/09/15_15:06:13,-0.02580950219,1.273197475e-313,0
2024/09/15_15:06:13,-0.02662635837,1.273197475e-313,0
2024/09/15_15:06:13,-0.02775284238,1.273197475e-313,0
2024/09/15_15:06:13,-0.02906246639,1.273197475e-313,0
2024/09/15_15:06:13,-0.03042878432,1.273197475e-313,0
2024/09/15_15:06:13,-0.03172539182,1.273197475e-313,0
2024/09/15_15:06:13,-0.03282592631,1.273197475e-313,0
2024/09/15_15:06:13,-0.03360406695,1.273197475e-313,0
2024/09/15_15:06:13,-0.03393353462,1.273197475e-313,0
2024/09/15_15:06:13,-0.03368809197,1.273197475e-313,0
2024/09/15_15:06:13,-0.03274569682,1.273197475e-313,0
2024/09/15_15:06:13,-0.03110085381,1.273197475e-313,0
2024/09/15_15:06:13,-0.02887761748,1.273197475e-313,0
2024/09/15_15:06:13,-0.02620684719,1.273197475e-313,0
2024/09/15_15:06:13,-0.0232194441,1.273197475e-313,0
2024/09/15_15:06:13,-0.02004635107,1.273197475e-313,0
2024/09/15_15:06:13,-0.01681852501,1.273197475e-313,0
2024/09/15_15:06:13,-0.0136668537,1.273197475e-313,0
2024/09/15_15:06:13,-0.01072223893,1.273197475e-313,0
2024/09/15_15:06:13,-0.00811562424,1.273197475e-313,0
2024/09/15_15:06:13,-0.005974361801,1.273197475e-313,0
2024/09/15_15:06:13,-0.004319081763,1.273197475e-313,0
2024/09/15_15:06:13,-0.003048949324,1.273197475e-313,0
2024/09/15_15:06:13,-0.002056574621,1.273197475e-313,0
2024/09/15_15:06:13,-0.001234609703,1.273197475e-313,0
2024/09/15_15:06:13,-0.0004757483657,1.273197475e-313,0
2024/09/15_15:06:13,0.0003272738482,1.273197475e-313,0
2024/09/15_15:06:13,0.001281679651,1.273197475e-313,0
2024/09/15_15:06:13,0.00249465001,1.273197475e-313,0
2024/09/15_15:06:13,0.004073324146,1.273197475e-313,0
2024/09/15_15:06:13,0.00612221542,1.273197475e-313,0
2024/09/15_15:06:13,0.008666164893,1.273197475e-313,0
2024/09/15_15:06:13,0.01163718451,1.273197475e-313,0
2024/09/15_15:06:13,0.01496200967,1.273197475e-313,0
2024/09/15_15:06:13,0.01856733406,1.273197475e-313,0
2024/09/15_15:06:13,0.0223798096,1.273197475e-313,0
2024/09/15_15:06:13,0.02632604647,1.273197475e-313,0
2024/09/15_15:06:13,0.0303326131,1.273197475e-313,0
2024/09/15_15:06:13,0.03432603617,1.273197475e-313,0
2024/09/15_15:06:13,0.03823280062,1.273197475e-313,0
2024/09/15_15:06:13,0.04198086745,1.273197475e-313,0
2024/09/15_15:06:13,0.04554725162,1.273197475e-313,0
2024/09/15_15:06:13,0.04896749902,1.273197475e-313,0
2024/09/15_15:06:13,0.05228054549,1.273197475e-313,0
2024/09/15_15:06:13,0.0555252851,1.273197475e-313,0
2024/09/15_15:06:13,0.05874057021,1.273197475e-313,0
2024/09/15_15:06:13,0.06196521141,1.273197475e-313,0
2024/09/15_15:06:13,0.06523797755,1.273197475e-313,0
2024/09/15_15:06:13,0.06859759572,1.273197475e-313,0
2024/09/15_15:06:13,0.0720827513,1.273197475e-313,0
2024/09/15_15:06:13,0.07573110585,1.273197475e-313,0
2024/09/15_15:06:13,0.07954689885,1.273197475e-313,0
2024/09/15_15:06:13,0.08349423481,1.273197475e-313,0
2024/09/15_15:06:13,0.08755143028,1.273197475e-313,0
2024/09/15_15:06:13,0.09167960073,1.273197475e-313,0
2024/09/15_15:06:13,0.09582977381,1.273197475e-313,0
2024/09/15_15:06:13,0.09995312096,1.273197475e-313,0
2024/09/15_15:06:13,0.1040009574,1.273197475e-313,0
2024/09/15_15:06:13,0.107924742,1.273197475e-313,0
2024/09/15_15:06:13,0.1116760777,1.273197475e-313,0
2024/09/15_15:06:13,0.1152082123,1.273197475e-313,0
2024/09/15_15:06:13,0.1185282262,1.273197475e-313,0
2024/09/15_15:06:13,0.1217104941,1.273197475e-313,0
2024/09/15_15:06:13,0.1248337707,1.273197475e-313,0
2024/09/15_15:06:13,0.1279769545,1.273197475e-313,0
2024/09/15_15:06:13,0.1312190875,1.273197475e-313,0
2024/09/15_15:06:13,0.134639356,1.273197475e-313,0
2024/09/15_15:06:13,0.1383170896,1.273197475e-313,0
2024/09/15_15:06:13,0.142331762,1.273197475e-313,0
2024/09/15_15:06:13,0.1467629903,1.273197475e-313,0
2024/09/15_15:06:13,0.1516882985,1.273197475e-313,0
2024/09/15_15:06:13,0.1571010922,1.273197475e-313,0
2024/09/15_15:06:13,0.1628870069,1.273197475e-313,0
2024/09/15_15:06:13,0.1689247633,1.273197475e-313,0
2024/09/15_15:06:13,0.1750932257,1.273197475e-313,0
2024/09/15_15:06:13,0.1812714022,1.273197475e-313,0
2024/09/15_15:06:13,0.1873384447,1.273197475e-313,0
2024/09/15_15:06:13,0.193173649,1.273197475e-313,0
2024/09/15_15:06:13,0.1986564544,1.273197475e-313,0
2024/09/15_15:06:13,0.2036664443,1.273197475e-313,0
2024/09/15_15:06:13,0.2080854646,1.273197475e-313,0
2024/09/15_15:06:13,0.211879664,1.273197475e-313,0
2024/09/15_15:06:13,0.2151257018,1.273197475e-313,0
2024/09/15_15:06:13,0.2179078631,1.273197475e-313,0
2024/09/15_15:06:13,0.2203105766,1.273197475e-313,0
2024/09/15_15:06:13,0.2224184148,1.273197475e-313,0
2024/09/15_15:06:13,0.224316094,1.273197475e-313,0
2024/09/15_15:06:13,0.2260884743,1.273197475e-313,0
2024/09/15_15:06:13,0.2278205595,1.273197475e-313,0
2024/09/15_15:06:13,0.2295974974,1.273197475e-313,0
2024/09/15_15:06:13,0.2315035572,1.273197475e-313,0
2024/09/15_15:06:13,0.233580299,1.273197475e-313,0
2024/09/15_15:06:13,0.2358118771,1.273197475e-313,0
2024/09/15_15:06:13,0.2381785489,1.273197475e-313,0
2024/09/15_15:06:13,0.2406607152,1.273197475e-313,0
2024/09/15_15:06:13,0.2432389207,1.273197475e-313,0
2024/09/15_15:06:13,0.2458938539,1.273197475e-313,0
2024/09/15_15:06:13,0.248606347,1.273197475e-313,0
2024/09/15_15:06:13,0.2513573761,1.273197475e-313,0
2024/09/15_15:06:13,0.2541280608,1.273197475e-313,0
2024/09/15_15:06:13,0.2568992208,1.273197475e-313,0
2024/09/15_15:06:13,0.2596321317,1.273197475e-313,0
2024/09/15_15:06:13,0.2622611377,1.273197475e-313,0
2024/09/15_15:06:13,0.2647187579,1.273197475e-313,0
2024/09/15_15:06:13,0.2669376553,1.273197475e-313,0
2024/09/15_15:06:13,0.2688506367,1.273197475e-313,0
2024/09/15_15:06:13,0.2703906525,1.273197475e-313,0
2024/09/15_15:06:13,0.2714907972,1.273197475e-313,0
2024/09/15_15:06:13,0.2720843087,1.273197475e-313,0
2024/09/15_15:06:13,0.272104569,1.273197475e-313,0
2024/09/15_15:06:13,0.2714860668,1.273197475e-313,0
2024/09/15_15:06:13,0.2702086648,1.273197475e-313,0
2024/09/15_15:06:13,0.2683160705,1.273197475e-313,0
2024/09/15_15:06:13,0.2658569294,1.273197475e-313,0
2024/09/15_15:06:13,0.2628800307,1.273197475e-313,0
2024/09/15_15:06:13,0.2594338346,1.273197475e-313,0
2024/09/15_15:06:13,0.2555642449,1.273197475e-313,0
2024/09/15_15:06:13,0.2513291257,1.273197475e-313,0
2024/09/15_15:06:13,0.2467891414,1.273197475e-313,0
2024/09/15_15:06:13,0.2420047563,1.273197475e-313,0
2024/09/15_15:06:13,0.2370359477,1.273197475e-313,0
2024/09/15_15:06:13,0.2319272841,1.273197475e-313,0
2024/09/15_15:06:13,0.2267011894,1.273197475e-313,0
2024/09/15_15:06:13,0.221378196,1.273197475e-313,0
2024/09/15_15:06:13,0.2159786546,1.273197475e-313,0
2024/09/15_15:06:13,0.2105227342,1.273197475e-313,0
2024/09/15_15:06:13,0.2050304226,1.273197475e-313,0
2024/09/15_15:06:13,0.1995215258,1.273197475e-313,0
2024/09/15_15:06:13,0.1940156684,1.273197475e-313,0
2024/09/15_15:06:13,0.1885322933,1.273197475e-313,0
2024/09/15_15:06:13,0.1830909581,1.273197475e-313,0
2024/09/15_15:06:13,0.1777267043,1.273197475e-313,0
2024/09/15_15:06:13,0.1724975349,1.273197475e-313,0
2024/09/15_15:06:13,0.1674631351,1.273197475e-313,0
2024/09/15_15:06:13,0.1626830082,1.273197475e-313,0
2024/09/15_15:06:13,0.1582164762,1.273197475e-313,0
2024/09/15_15:06:13,0.1541226795,1.273197475e-313,0
2024/09/15_15:06:13,0.1504605769,1.273197475e-313,0
2024/09/15_15:06:13,0.1472889457,1.273197475e-313,0
2024/09/15_15:06:13,0.1446663817,1.273197475e-313,0
2024/09/15_15:06:13,0.1426495438,1.273197475e-313,0
2024/09/15_15:06:13,0.1411961189,1.273197475e-313,0
2024/09/15_15:06:13,0.1401141233,1.273197475e-313,0
2024/09/15_15:06:13,0.1391989482,1.273197475e-313,0
2024/09/15_15:06:13,0.138245803,1.273197475e-313,0
2024/09/15_15:06:13,0.1370497161,1.273197475e-313,0
2024/09/15_15:06:13,0.1354055338,1.273197475e-313,0
2024/09/15_15:06:13,0.1331079212,1.273197475e-313,0
2024/09/15_15:06:13,0.1299513617,1.273197475e-313,0
2024/09/15_15:06:13,0.1257301573,1.273197475e-313,0
2024/09/15_15:06:13,0.1202414449,1.273197475e-313,0
2024/09/15_15:06:13,0.1134631824,1.273197475e-313,0
2024/09/15_15:06:13,0.1056536992,1.273197475e-313,0
2024/09/15_15:06:13,0.09709527712,1.273197475e-313,0
2024/09/15_15:06:13,0.08807001628,1.273197475e-313,0
2024/09/15_15:06:13,0.07885983526,1.273197475e-313,0
2024/09/15_15:06:13,0.06974647112,1.273197475e-313,0
2024/09/15_15:06:13,0.06101147935,1.273197475e-313,0
2024/09/15_15:06:13,0.05293623391,1.273197475e-313,0
2024/09/15_15:06:13,0.04580192719,1.273197475e-313,0
2024/09/15_15:06:13,0.03988701862,1.273197475e-313,0
2024/09/15_15:06:13,0.03530627968,1.273197475e-313,0
2024/09/15_15:06:13,0.03191468515,1.273197475e-313,0
2024/09/15_15:06:13,0.02954395754,1.273197475e-313,0
2024/09/15_15:06:13,0.02802563777,1.273197475e-313,0
2024/09/15_15:06:13,0.02719108524,1.273197475e-313,0
2024/09/15_15:06:13,0.0268714778,1.273197475e-313,0
2024/09/15_15:06:13,0.02689781174,1.273197475e-313,0
2024/09/15_15:06:13,0.02710090181,1.273197475e-313,0
2024/09/15_15:06:13,0.02731138121,1.273197475e-313,0
2024/09/15_15:06:13,0.02736045517,1.273197475e-313,0
2024/09/15_15:06:13,0.02713083154,1.273197475e-313,0
2024/09/15_15:06:13,0.02658910721,1.273197475e-313,0
2024/09/15_15:06:13,0.02570941288,1.273197475e-313,0
2024/09/15_15:06:13,0.02446569772,1.273197475e-313,0
2024/09/15_15:06:13,0.02283172933,1.273197475e-313,0
2024/09/15_15:06:13,0.02078109379,1.273197475e-313,0
2024/09/15_15:06:13,0.01828719563,1.273197475e-313,0
2024/09/15_15:06:13,0.01532743825,1.273197475e-313,0
2024/09/15_15:06:13,0.01188017415,1.273197475e-313,0
2024/09/15_15:06:13,0.007915509858,1.273197475e-313,0
2024/09/15_15:06:13,0.00348600656,1.273197475e-313,0
2024/09/15_15:06:13,-0.00121784776,1.273197475e-313,0
2024/09/15_15:06:13,-0.005992814338,1.273197475e-313,0
2024/09/15_15:06:13,-0.0106360047,1.273197475e-313,0
2024/09/15_15:06:13,-0.01494488068,1.273197475e-313,0
2024/09/15_15:06:13,-0.01871725439,1.273197475e-313,0
2024/09/15_15:06:13,-0.02175128823,1.273197475e-313,0
2024/09/15_15:06:13,-0.02384549491,1.273197475e-313,0
2024/09/15_15:06:13,-0.02479873742,1.273197475e-313,0
2024/09/15_15:06:13,-0.02441260668,1.273197475e-313,0
2024/09/15_15:06:13,-0.02267708867,1.273197475e-313,0
2024/09/15_15:06:13,-0.0199036024,1.273197475e-313,0
2024/09/15_15:06:13,-0.0164353139,1.273197475e-313,0
2024/09/15_15:06:13,-0.01261573954,1.273197475e-313,0
2024/09/15_15:06:13,-0.00878874595,1.273197475e-313,0
2024/09/15_15:06:13,-0.005298550065,1.273197475e-313,0
2024/09/15_15:06:13,-0.002489719114,1.273197475e-313,0
2024/09/15_15:06:13,-0.0007071706158,1.273197475e-313,0
2024/09/15_15:06:13,-0.0002961723833,1.273197475e-313,0
2024/09/15_15:06:13,-0.001599624818,1.273197475e-313,0
2024/09/15_15:06:13,-0.004729122203,1.273197475e-313,0
2024/09/15_15:06:13,-0.009391305135,1.273197475e-313,0
2024/09/15_15:06:13,-0.01525227294,1.273197475e-313,0
2024/09/15_15:06:13,-0.02197847525,1.273197475e-313,0
2024/09/15_15:06:13,-0.02923671198,1.273197475e-313,0
2024/09/15_15:06:13,-0.03669413332,1.273197475e-313,0
2024/09/15_15:06:13,-0.0440182398,1.273197475e-313,0
2024/09/15_15:06:13,-0.05087688219,1.273197475e-313,0
2024/09/15_15:06:13,-0.0569382616,1.273197475e-313,0
2024/09/15_15:06:13,-0.06187325016,1.273197475e-313,0
2024/09/15_15:06:13,-0.06556684213,1.273197475e-313,0
2024/09/15_15:06:13,-0.06828764816,1.273197475e-313,0
2024/09/15_15:06:13,-0.07034451484,1.273197475e-313,0
2024/09/15_15:06:13,-0.07204663905,1.273197475e-313,0
2024/09/15_15:06:13,-0.07370356797,1.273197475e-313,0
2024/09/15_15:06:13,-0.07562519906,1.273197475e-313,0
2024/09/15_15:06:13,-0.0781217801,1.273197475e-313,0
2024/09/15_15:06:13,-0.08150389757,1.273197475e-313,0
2024/09/15_15:06:13,-0.08608244202,1.273197475e-313,0
2024/09/15_15:06:13,-0.09216688354,1.273197475e-313,0
2024/09/15_15:06:13,-0.09989143603,1.273197475e-313,0
2024/09/15_15:06:13,-0.1090680092,1.273197475e-313,0
2024/09/15_15:06:13,-0.1194742373,1.273197475e-313,0
2024/09/15_15:06:13,-0.1310912966,1.273197475e-313,0
2024/09/15_15:06:13,-0.1437844875,1.273197475e-313,0
2024/09/15_15:06:13,-0.1570890243,1.273197475e-313,0
2024/09/15_15:06:13,-0.1705480315,1.273197475e-313,0
2024/09/15_15:06:13,-0.1837131773,1.273197475e-313,0
2024/09/15_15:06:13,-0.196144667,1.273197475e-313,0
2024/09/15_15:06:13,-0.2074121568,1.273197475e-313,0
2024/09/15_15:06:13,-0.2171930491,1.273197475e-313,0
2024/09/15_15:06:13,-0.2253601069,1.273197475e-313,0
2024/09/15_15:06:13,-0.2318152994,1.273197475e-313,0
2024/09/15_15:06:13,-0.2364691326,1.273197475e-313,0
2024/09/15_15:06:13,-0.2392406493,1.273197475e-313,0
2024/09/15_15:06:13,-0.2400574291,1.273197475e-313,0
2024/09/15_15:06:13,-0.2388555884,1.273197475e-313,0
2024/09/15_15:06:13,-0.2355797802,1.273197475e-313,0
2024/09/15_15:06:13,-0.2301831945,1.273197475e-313,0
2024/09/15_15:06:13,-0.222627859,1.273197475e-313,0
2024/09/15_15:06:13,-0.2129199653,1.273197475e-313,0
2024/09/15_15:06:13,-0.2011430083,1.273197475e-313,0
2024/09/15_15:06:13,-0.1873968611,1.273197475e-313,0
2024/09/15_15:06:13,-0.171789934,1.273197475e-313,0
2024/09/15_15:06:13,-0.1544391737,1.273197475e-313,0
2024/09/15_15:06:13,-0.1354700638,1.273197475e-313,0
2024/09/15_15:06:13,-0.1150166248,1.273197475e-313,0
2024/09/15_15:06:13,-0.09322141378,1.273197475e-313,0
2024/09/15_15:06:13,-0.07023552468,1.273197475e-313,0
2024/09/15_15:06:13,-0.04621759625,1.273197475e-313,0
2024/09/15_15:06:13,-0.02120632379,1.273197475e-313,0
2024/09/15_15:06:13,0.005005268326,1.273197475e-313,0
2024/09/15_15:06:13,0.0326454897,1.273197475e-313,0
2024/09/15_15:06:13,0.06193411317,1.273197475e-313,0
2024/09/15_15:06:13,0.09308237479,1.273197475e-313,0
2024/09/15_15:06:13,0.1262929738,1.273197475e-313,0
2024/09/15_15:06:13,0.1617600728,1.273197475e-313,0
2024/09/15_15:06:13,0.1996692975,1.273197475e-313,0
2024/09/15_15:06:13,0.2401977368,1.273197475e-313,0
2024/09/15_15:06:13,0.2835130883,1.273197475e-313,0
2024/09/15_15:06:13,0.3296528994,1.273197475e-313,0
2024/09/15_15:06:13,0.3783995044,1.273197475e-313,0
2024/09/15_15:06:13,0.4294968394,1.273197475e-313,0
2024/09/15_15:06:13,0.4826803034,1.273197475e-313,0
2024/09/15_15:06:13,0.5376767642,1.273197475e-313,0
2024/09/15_15:06:13,0.5941009726,1.273197475e-313,0
2024/09/15_15:06:13,0.6511387956,1.273197475e-313,0
2024/09/15_15:06:13,0.7079017209,1.273197475e-313,0
2024/09/15_15:06:13,0.7635454069,1.273197475e-313,0
2024/09/15_15:06:13,0.8172701287,1.273197475e-313,0
2024/09/15_15:06:13,0.8683902419,1.273197475e-313,0
2024/09/15_15:06:13,0.9164096576,1.273197475e-313,0
2024/09/15_15:06:13,0.9608945857,1.273197475e-313,0
2024/09/15_15:06:13,1.001455407,1.273197475e-313,0
2024/09/15_15:06:13,1.037746673,1.273197475e-313,0
2024/09/15_15:06:13,1.069467107,1.273197475e-313,0
2024/09/15_15:06:13,1.096359602,1.273197475e-313,0
2024/09/15_15:06:13,1.118211224,1.273197475e-313,0
2024/09/15_15:06:13,1.134853207,1.273197475e-313,0
2024/09/15_15:06:13,1.146160876,1.273197475e-313,0
2024/09/15_15:06:13,1.152039366,1.273197475e-313,0
2024/09/15_15:06:13,1.152407364,1.273197475e-313,0
2024/09/15_15:06:13,1.147223795,1.273197475e-313,0
2024/09/15_15:06:13,1.136491757,1.273197475e-313,0
2024/09/15_15:06:13,1.120258516,1.273197475e-313,0
2024/09/15_15:06:13,1.098615512,1.273197475e-313,0
2024/09/15_15:06:13,1.071698354,1.273197475e-313,0
2024/09/15_15:06:13,1.039686823,1.273197475e-313,0
2024/09/15_15:06:13,1.002804659,1.273197475e-313,0
2024/09/15_15:06:13,0.9613377982,1.273197475e-313,0
2024/09/15_15:06:13,0.9158762703,1.273197475e-313,0
2024/09/15_15:06:13,0.8671206732,1.273197475e-313,0
2024/09/15_15:06:13,0.8157475987,1.273197475e-313,0
2024/09/15_15:06:13,0.7624051297,1.273197475e-313,0
2024/09/15_15:06:13,0.7077128398,1.273197475e-313,0
2024/09/15_15:06:13,0.6522617936,1.273197475e-313,0
2024/09/15_15:06:13,0.5966145463,1.273197475e-313,0
2024/09/15_15:06:13,0.5413051442,1.273197475e-313,0
2024/09/15_15:06:13,0.4868391241,1.273197475e-313,0
2024/09/15_15:06:13,0.4336929932,1.273197475e-313,0
2024/09/15_15:06:13,0.3822017569,1.273197475e-313,0
2024/09/15_15:06:13,0.3324185335,1.273197475e-313,0
2024/09/15_15:06:13,0.2843334499,1.273197475e-313,0
2024/09/15_15:06:13,0.2379081237,1.273197475e-313,0
2024/09/15_15:06:13,0.1930756634,1.273197475e-313,0
2024/09/15_15:06:13,0.1497406681,1.273197475e-313,0
2024/09/15_15:06:13,0.1077792281,1.273197475e-313,0
2024/09/15_15:06:13,0.06703892415,1.273197475e-313,0
2024/09/15_15:06:13,0.02733882812,1.273197475e-313,0
2024/09/15_15:06:13,-0.01152968033,1.273197475e-313,0
2024/09/15_15:06:13,-0.04960407594,1.273197475e-313,0
2024/09/15_15:06:13,-0.08649114767,1.273197475e-313,0
2024/09/15_15:06:13,-0.1217570349,1.273197475e-313,0
2024/09/15_15:06:13,-0.1545479895,1.273197475e-313,0
2024/09/15_15:06:13,-0.1843310413,1.273197475e-313,0
2024/09/15_15:06:13,-0.2109288963,1.273197475e-313,0
2024/09/15_15:06:13,-0.2341582071,1.273197475e-313,0
2024/09/15_15:06:13,-0.2538295728,1.273197475e-313,0
2024/09/15_15:06:13,-0.2697475621,1.273197475e-313,0
2024/09/15_15:06:13,-0.2817113718,1.273197475e-313,0
2024/09/15_15:06:13,-0.2896779506,1.273197475e-313,0
2024/09/15_15:06:13,-0.2939845852,1.273197475e-313,0
2024/09/15_15:06:13,-0.2950182025,1.273197475e-313,0
2024/09/15_15:06:13,-0.2931596761,1.273197475e-313,0
2024/09/15_15:06:13,-0.2887838262,1.273197475e-313,0
2024/09/15_15:06:13,-0.2822594199,1.273197475e-313,0
2024/09/15_15:06:13,-0.2739491708,1.273197475e-313,0
2024/09/15_15:06:13,-0.2642097394,1.273197475e-313,0
2024/09/15_15:06:13,-0.2533917328,1.273197475e-313,0
2024/09/15_15:06:13,-0.2418395452,1.273197475e-313,0
2024/09/15_15:06:13,-0.2298410057,1.273197475e-313,0
2024/09/15_15:06:13,-0.2175556439,1.273197475e-313,0
2024/09/15_15:06:13,-0.2051188068,1.273197475e-313,0
2024/09/15_15:06:13,-0.1926597879,1.273197475e-313,0
2024/09/15_15:06:13,-0.1803018277,1.273197475e-313,0
2024/09/15_15:06:13,-0.1681621132,1.273197475e-313,0
2024/09/15_15:06:13,-0.1563517782,1.273197475e-313,0
2024/09/15_15:06:13,-0.1449759032,1.273197475e-313,0
2024/09/15_15:06:13,-0.1341335154,1.273197475e-313,0
2024/09/15_15:06:13,-0.1239174895,1.273197475e-313,0
2024/09/15_15:06:13,-0.1143785133,1.273197475e-313,0
2024/09/15_15:06:13,-0.1054715032,1.273197475e-313,0
2024/09/15_15:06:13,-0.09713163441,1.273197475e-313,0
2024/09/15_15:06:13,-0.08928802885,1.273197475e-313,0
2024/09/15_15:06:13,-0.08186375516,1.273197475e-313,0
2024/09/15_15:06:13,-0.07477582868,1.273197475e-313,0
2024/09/15_15:06:13,-0.06793521145,1.273197475e-313,0
2024/09/15_15:06:13,-0.06124681225,1.273197475e-313,0
2024/09/15_15:06:13,-0.05460948655,1.273197475e-313,0
2024/09/15_15:06:13,-0.04791617719,1.273197475e-313,0
2024/09/15_15:06:13,-0.04111325672,1.273197475e-313,0
2024/09/15_15:06:13,-0.03429258745,1.273197475e-313,0
2024/09/15_15:06:13,-0.0275637597,1.273197475e-313,0
2024/09/15_15:06:13,-0.0210303105,1.273197475e-313,0
2024/09/15_15:06:13,-0.01478972359,1.273197475e-313,0
2024/09/15_15:06:13,-0.008890133411,1.273197475e-313,0
2024/09/15_15:06:13,-0.003306206443,1.273197475e-313,0
2024/09/15_15:06:13,0.001879974909,1.273197475e-313,0
2024/09/15_15:06:13,0.006579598616,1.273197475e-313,0
2024/09/15_15:06:13,0.01070307483,1.273197475e-313,0
2024/09/15_15:06:13,0.01419762745,1.273197475e-313,0
2024/09/15_15:06:13,0.01710810195,1.273197475e-313,0
2024/09/15_15:06:13,0.01949438335,1.273197475e-313,0
2024/09/15_15:06:13,0.0214155029,1.273197475e-313,0
2024/09/15_15:06:13,0.02292963812,1.273197475e-313,0
2024/09/15_15:06:13,0.02409411278,1.273197475e-313,0
2024/09/15_15:06:13,0.02496539688,1.273197475e-313,0
2024/09/15_15:06:13,0.02559910668,1.273197475e-313,0
2024/09/15_15:06:13,0.02605000469,1.273197475e-313,0
2024/09/15_15:06:13,0.02637202817,1.273197475e-313,0
2024/09/15_15:06:13,0.0266350379,1.273197475e-313,0
2024/09/15_15:06:13,0.02695305453,1.273197475e-313,0
2024/09/15_15:06:13,0.02744671569,1.273197475e-313,0
2024/09/15_15:06:13,0.02823580529,1.273197475e-313,0
2024/09/15_15:06:13,0.02943925345,1.273197475e-313,0
2024/09/15_15:06:13,0.03117513658,1.273197475e-313,0
2024/09/15_15:06:13,0.0335606773,1.273197475e-313,0
2024/09/15_15:06:13,0.0367122445,1.273197475e-313,0
2024/09/15_15:06:13,0.04074535331,1.273197475e-313,0
2024/09/15_15:06:13,0.04577451982,1.273197475e-313,0
2024/09/15_15:06:13,0.0518105657,1.273197475e-313,0
2024/09/15_15:06:13,0.05858026,1.273197475e-313,0
2024/09/15_15:06:13,0.06576119016,1.273197475e-313,0
2024/09/15_15:06:13,0.07303008988,1.273197475e-313,0
2024/09/15_15:06:13,0.0800628391,1.273197475e-313,0
2024/09/15_15:06:13,0.086534464,1.273197475e-313,0
2024/09/15_15:06:13,0.09211913702,1.273197475e-313,0
2024/09/15_15:06:13,0.09649017686,1.273197475e-313,0
2024/09/15_15:06:13,0.09932004844,1.273197475e-313,0
2024/09/15_15:06:13,0.1002805617,1.273197475e-313,0
2024/09/15_15:06:13,0.0992143332,1.273197475e-313,0
2024/09/15_15:06:13,0.09644835409,1.273197475e-313,0
2024/09/15_15:06:13,0.09239389305,1.273197475e-313,0
2024/09/15_15:06:13,0.08746136504,1.273197475e-313,0
2024/09/15_15:06:13,0.08206033129,1.273197475e-313,0
2024/09/15_15:06:13,0.07660389986,1.273197475e-313,0
2024/09/15_15:06:13,0.07152916973,1.273197475e-313,0
2024/09/15_15:06:13,0.06725736117,1.273197475e-313,0
2024/09/15_15:06:13,0.06420597422,1.273197475e-313,0
2024/09/15_15:06:13,0.06279231507,1.273197475e-313,0
2024/09/15_15:06:13,0.06326887939,1.273197475e-313,0
2024/09/15_15:06:13,0.06540999258,1.273197475e-313,0
2024/09/15_15:06:13,0.06890370441,1.273197475e-313,0
2024/09/15_15:06:13,0.07343802439,1.273197475e-313,0
2024/09/15_15:06:13,0.07870092173,1.273197475e-313,0
2024/09/15_15:06:13,0.08438032537,1.273197475e-313,0
2024/09/15_15:06:13,0.09016412398,1.273197475e-313,0
2024/09/15_15:06:13,0.09574016593,1.273197475e-313,0
2024/09/15_15:06:13,0.1007962593,1.273197475e-313,0
2024/09/15_15:06:13,0.1050202487,1.273197475e-313,0
2024/09/15_15:06:13,0.1082043775,1.273197475e-313,0
2024/09/15_15:06:13,0.1104519941,1.273197475e-313,0
2024/09/15_15:06:13,0.1119240913,1.273197475e-313,0
2024/09/15_15:06:13,0.1127816216,1.273197475e-313,0
2024/09/15_15:06:13,0.113185497,1.273197475e-313,0
2024/09/15_15:06:13,0.1132965895,1.273197475e-313,0
2024/09/15_15:06:13,0.1132757305,1.273197475e-313,0
2024/09/15_15:06:13,0.1132837114,1.273197475e-313,0
2024/09/15_15:06:13,0.1134812833,1.273197475e-313,0
2024/09/15_15:06:13,0.1140291652,1.273197475e-313,0
2024/09/15_15:06:13,0.1150521082,1.273197475e-313,0
2024/09/15_15:06:13,0.1165645957,1.273197475e-313,0
2024/09/15_15:06:13,0.1185600615,1.273197475e-313,0
2024/09/15_15:06:13,0.121031899,1.273197475e-313,0
2024/09/15_15:06:13,0.1239734616,1.273197475e-313,0
2024/09/15_15:06:13,0.1273780619,1.273197475e-313,0
2024/09/15_15:06:13,0.1312389728,1.273197475e-313,0
2024/09/15_15:06:13,0.1355494265,1.273197475e-313,0
2024/09/15_15:06:13,0.140302615,1.273197475e-313,0
2024/09/15_15:06:13,0.1454916814,1.273197475e-313,0
2024/09/15_15:06:13,0.15108476,1.273197475e-313,0
2024/09/15_15:06:13,0.1569714702,1.273197475e-313,0
2024/09/15_15:06:13,0.1630260205,1.273197475e-313,0
2024/09/15_15:06:13,0.1691225793,1.273197475e-313,0
2024/09/15_15:06:13,0.1751352745,1.273197475e-313,0
2024/09/15_15:06:13,0.1809381938,1.273197475e-313,0
2024/09/15_15:06:13,0.1864053847,1.273197475e-313,0
2024/09/15_15:06:13,0.1914108544,1.273197475e-313,0
2024/09/15_15:06:13,0.1958285698,1.273197475e-313,0
2024/09/15_15:06:13,0.1995324777,1.273197475e-313,0
2024/09/15_15:06:13,0.2024634579,1.273197475e-313,0
2024/09/15_15:06:13,0.2047803705,1.273197475e-313,0
2024/09/15_15:06:13,0.2066971612,1.273197475e-313,0
2024/09/15_15:06:13,0.2084146647,1.273197475e-313,0
2024/09/15_15:06:13,0.2101306842,1.273197475e-313,0
2024/09/15_15:06:13,0.2120430381,1.273197475e-313,0
2024/09/15_15:06:13,0.214349561,1.273197475e-313,0
2024/09/15_15:06:13,0.217248103,1.273197475e-313,0
2024/09/15_15:06:13,0.22093653,1.273197475e-313,0
2024/09/15_15:06:13,0.2256127058,1.273197475e-313,0
2024/09/15_15:06:13,0.231389715,1.273197475e-313,0
2024/09/15_15:06:13,0.2380997269,1.273197475e-313,0
2024/09/15_15:06:13,0.2455168251,1.273197475e-313,0
2024/09/15_15:06:13,0.2534151089,1.273197475e-313,0
2024/09/15_15:06:13,0.2615686932,1.273197475e-313,0
2024/09/15_15:06:13,0.2697517088,1.273197475e-313,0
2024/09/15_15:06:13,0.2777383022,1.273197475e-313,0
2024/09/15_15:06:13,0.2853026355,1.273197475e-313,0
2024/09/15_15:06:13,0.2922188868,1.273197475e-313,0
2024/09/15_15:06:13,0.2982612583,1.273197475e-313,0
2024/09/15_15:06:13,0.3032686487,1.273197475e-313,0
2024/09/15_15:06:13,0.3073000733,1.273197475e-313,0
2024/09/15_15:06:13,0.3104613387,1.273197475e-313,0
2024/09/15_15:06:13,0.3128582671,1.273197475e-313,0
2024/09/15_15:06:13,0.3145966967,1.273197475e-313,0
2024/09/15_15:06:13,0.3157824811,1.273197475e-313,0
2024/09/15_15:06:13,0.3165214897,1.273197475e-313,0
2024/09/15_15:06:13,0.3169196079,1.273197475e-313,0
2024/09/15_15:06:13,0.3170827364,1.273197475e-313,0
2024/09/15_15:06:13,0.3171167921,1.273197475e-313,0
2024/09/15_15:06:13,0.3171274201,1.273197475e-313,0
2024/09/15_15:06:13,0.317219278,1.273197475e-313,0
2024/09/15_15:06:13,0.3174968202,1.273197475e-313,0
2024/09/15_15:06:13,0.3180645165,1.273197475e-313,0
2024/09/15_15:06:13,0.3190268525,1.273197475e-313,0
2024/09/15_15:06:13,0.3204883298,1.273197475e-313,0
2024/09/15_15:06:13,0.3225534653,1.273197475e-313,0
2024/09/15_15:06:13,0.3253267921,1.273197475e-313,0
2024/09/15_15:06:13,0.3289128587,1.273197475e-313,0
2024/09/15_15:06:13,0.3334162273,1.273197475e-313,0
2024/09/15_15:06:13,0.3388931598,1.273197475e-313,0
2024/09/15_15:06:13,0.3452264451,1.273197475e-313,0
2024/09/15_15:06:13,0.3522599632,1.273197475e-313,0
2024/09/15_15:06:13,0.3598376098,1.273197475e-313,0
2024/09/15_15:06:13,0.3678032966,1.273197475e-313,0
2024/09/15_15:06:13,0.3760009506,1.273197475e-313,0
2024/09/15_15:06:13,0.3842745149,1.273197475e-313,0
2024/09/15_15:06:13,0.3924679482,1.273197475e-313,0
2024/09/15_15:06:13,0.4004252249,1.273197475e-313,0
2024/09/15_15:06:13,0.4079903357,1.273197475e-313,0
2024/09/15_15:06:13,0.4150326251,1.273197475e-313,0
2024/09/15_15:06:13,0.4215149195,1.273197475e-313,0
2024/09/15_15:06:13,0.4274216071,1.273197475e-313,0
2024/09/15_15:06:13,0.4327370917,1.273197475e-313,0
2024/09/15_15:06:13,0.4374457927,1.273197475e-313,0
2024/09/15_15:06:13,0.4415321454,1.273197475e-313,0
2024/09/15_15:06:13,0.4449806009,1.273197475e-313,0
2024/09/15_15:06:13,0.4477756258,1.273197475e-313,0
2024/09/15_15:06:13,0.4499017027,1.273197475e-313,0
2024/09/15_15:06:13,0.4513433299,1.273197475e-313,0
2024/09/15_15:06:13,0.4521160487,1.273197475e-313,0
2024/09/15_15:06:13,0.4523529968,1.273197475e-313,0
2024/09/15_15:06:13,0.4522151756,1.273197475e-313,0
2024/09/15_15:06:13,0.4518636025,1.273197475e-313,0
2024/09/15_15:06:13,0.4514593104,1.273197475e-313,0
2024/09/15_15:06:13,0.4511633482,1.273197475e-313,0
2024/09/15_15:06:13,0.4511367802,1.273197475e-313,0
2024/09/15_15:06:13,0.4515406866,1.273197475e-313,0
2024/09/15_15:06:13,0.4525361635,1.273197475e-313,0
2024/09/15_15:06:13,0.4542843223,1.273197475e-313,0
2024/09/15_15:06:13,0.4568845634,1.273197475e-313,0
2024/09/15_15:06:13,0.4601959771,1.273197475e-313,0
2024/09/15_15:06:13,0.4640191904,1.273197475e-313,0
2024/09/15_15:06:13,0.4681548461,1.273197475e-313,0
2024/09/15_15:06:13,0.4724036026,1.273197475e-313,0
2024/09/15_15:06:13,0.4765661341,1.273197475e-313,0
2024/09/15_15:06:13,0.4804431305,1.273197475e-313,0
2024/09/15_15:06:13,0.4838352974,1.273197475e-313,0
2024/09/15_15:06:13,0.4865433563,1.273197475e-313,0
2024/09/15_15:06:13,0.4883680442,1.273197475e-313,0
2024/09/15_15:06:13,0.4891695564,1.273197475e-313,0
2024/09/15_15:06:13,0.4890458731,1.273197475e-313,0
2024/09/15_15:06:13,0.4881544327,1.273197475e-313,0
2024/09/15_15:06:13,0.4866526895,1.273197475e-313,0
2024/09/15_15:06:13,0.4846981132,1.273197475e-313,0
2024/09/15_15:06:13,0.4824481894,1.273197475e-313,0
2024/09/15_15:06:13,0.4800604196,1.273197475e-313,0
2024/09/15_15:06:13,0.4776923207,1.273197475e-313,0
2024/09/15_15:06:13,0.4755014255,1.273197475e-313,0
2024/09/15_15:06:13,0.4736452826,1.273197475e-313,0
2024/09/15_15:06:13,0.4722364359,1.273197475e-313,0
2024/09/15_15:06:13,0.4712212553,1.273197475e-313,0
2024/09/15_15:06:13,0.4705163587,1.273197475e-313,0
2024/09/15_15:06:13,0.4700386623,1.273197475e-313,0
2024/09/15_15:06:13,0.4697050614,1.273197475e-313,0
2024/09/15_15:06:13,0.46943243,1.273197475e-313,0
2024/09/15_15:06:13,0.4691376211,1.273197475e-313,0
2024/09/15_15:06:13,0.4687374667,1.273197475e-313,0
2024/09/15_15:06:13,0.4681487774,1.273197475e-313,0
2024/09/15_15:06:13,0.4672883431,1.273197475e-313,0
2024/09/15_15:06:13,0.4660881697,1.273197475e-313,0
2024/09/15_15:06:13,0.4645445789,1.273197475e-313,0
2024/09/15_15:06:13,0.462670848,1.273197475e-313,0
2024/09/15_15:06:13,0.4604802336,1.273197475e-313,0
2024/09/15_15:06:13,0.4579859709,1.273197475e-313,0
2024/09/15_15:06:13,0.4552012742,1.273197475e-313,0
2024/09/15_15:06:13,0.4521393366,1.273197475e-313,0
2024/09/15_15:06:13,0.4488133302,1.273197475e-313,0
2024/09/15_15:06:13,0.4452364057,1.273197475e-313,0
2024/09/15_15:06:13,0.441421693,1.273197475e-313,0
2024/09/15_15:06:13,0.4373876987,1.273197475e-313,0
2024/09/15_15:06:13,0.4331763239,1.273197475e-313,0
2024/09/15_15:06:13,0.4288357965,1.273197475e-313,0
2024/09/15_15:06:13,0.4244143236,1.273197475e-313,0
2024/09/15_15:06:13,0.4199600911,1.273197475e-313,0
2024/09/15_15:06:13,0.4155212637,1.273197475e-313,0
2024/09/15_15:06:13,0.411145985,1.273197475e-313,0
2024/09/15_15:06:13,0.4068823778,1.273197475e-313,0
2024/09/15_15:06:13,0.4027785433,1.273197475e-313,0
2024/09/15_15:06:13,0.398882562,1.273197475e-313,0
2024/09/15_15:06:13,0.3952193289,1.273197475e-313,0
2024/09/15_15:06:13,0.3917104754,1.273197475e-313,0
2024/09/15_15:06:13,0.3882488583,1.273197475e-313,0
2024/09/15_15:06:13,0.3847273123,1.273197475e-313,0
2024/09/15_15:06:13,0.3810386511,1.273197475e-313,0
2024/09/15_15:06:13,0.3770756671,1.273197475e-313,0
2024/09/15_15:06:13,0.3727311317,1.273197475e-313,0
2024/09/15_15:06:13,0.3678977951,1.273197475e-313,0
2024/09/15_15:06:13,0.3624683865,1.273197475e-313,0
2024/09/15_15:06:13,0.3563356139,1.273197475e-313,0
2024/09/15_15:06:13,0.3494375394,1.273197475e-313,0
2024/09/15_15:06:13,0.3419199993,1.273197475e-313,0
2024/09/15_15:06:13,0.3339882568,1.273197475e-313,0
2024/09/15_15:06:13,0.3258475583,1.273197475e-313,0
2024/09/15_15:06:13,0.3177031296,1.273197475e-313,0
2024/09/15_15:06:13,0.309760175,1.273197475e-313,0
2024/09/15_15:06:13,0.3022238779,1.273197475e-313,0
2024/09/15_15:06:13,0.2952994004,1.273197475e-313,0
2024/09/15_15:06:13,0.2891918838,1.273197475e-313,0
2024/09/15_15:06:13,0.2841064481,1.273197475e-313,0
2024/09/15_15:06:13,0.2801982739,1.273197475e-313,0
2024/09/15_15:06:13,0.2773876314,1.273197475e-313,0
2024/09/15_15:06:13,0.2755257437,1.273197475e-313,0
2024/09/15_15:06:13,0.274463803,1.273197475e-313,0
2024/09/15_15:06:13,0.2740529808,1.273197475e-313,0
2024/09/15_15:06:13,0.2741444273,1.273197475e-313,0
2024/09/15_15:06:13,0.2745892716,1.273197475e-313,0
2024/09/15_15:06:13,0.2752386218,1.273197475e-313,0
2024/09/15_15:06:13,0.2759435648,1.273197475e-313,0
2024/09/15_15:06:13,0.2765551665,1.273197475e-313,0
2024/09/15_15:06:13,0.2769293751,1.273197475e-313,0
2024/09/15_15:06:13,0.2769458284,1.273197475e-313,0
2024/09/15_15:06:13,0.2764912996,1.273197475e-313,0
2024/09/15_15:06:13,0.2754525422,1.273197475e-313,0
2024/09/15_15:06:13,0.2737162887,1.273197475e-313,0
2024/09/15_15:06:13,0.2711692505,1.273197475e-313,0
2024/09/15_15:06:13,0.2676981177,1.273197475e-313,0
2024/09/15_15:06:13,0.2631895596,1.273197475e-313,0
2024/09/15_15:06:13,0.2575302241,1.273197475e-313,0
2024/09/15_15:06:13,0.2506067382,1.273197475e-313,0
2024/09/15_15:06:13,0.2423627875,1.273197475e-313,0
2024/09/15_15:06:13,0.233025649,1.273197475e-313,0
2024/09/15_15:06:13,0.2229104979,1.273197475e-313,0
2024/09/15_15:06:13,0.212332515,1.273197475e-313,0
2024/09/15_15:06:13,0.2016068601,1.273197475e-313,0
2024/09/15_15:06:13,0.1910486715,1.273197475e-313,0
2024/09/15_15:06:13,0.1809730669,1.273197475e-313,0
2024/09/15_15:06:13,0.1716951426,1.273197475e-313,0
2024/09/15_15:06:13,0.1635299737,1.273197475e-313,0
2024/09/15_15:06:13,0.1567926145,1.273197475e-313,0
2024/09/15_15:06:13,0.1517160603,1.273197475e-313,0
2024/09/15_15:06:13,0.1481143825,1.273197475e-313,0
2024/09/15_15:06:13,0.1456682724,1.273197475e-313,0
2024/09/15_15:06:13,0.1440583435,1.273197475e-313,0
2024/09/15_15:06:13,0.1429651886,1.273197475e-313,0
2024/09/15_15:06:13,0.1420693789,1.273197475e-313,0
2024/09/15_15:06:13,0.141051465,1.273197475e-313,0
2024/09/15_15:06:13,0.139591976,1.273197475e-313,0
2024/09/15_15:06:13,0.1373714201,1.273197475e-313,0
2024/09/15_15:06:13,0.1340702842,1.273197475e-313,0
2024/09/15_15:06:13,0.1294479325,1.273197475e-313,0
2024/09/15_15:06:13,0.1236777482,1.273197475e-313,0
2024/09/15_15:06:13,0.1170684128,1.273197475e-313,0
2024/09/15_15:06:13,0.1099286539,1.273197475e-313,0
2024/09/15_15:06:13,0.102567178,1.273197475e-313,0
2024/09/15_15:06:13,0.09529267051,1.273197475e-313,0
2024/09/15_15:06:13,0.08841379578,1.273197475e-313,0
2024/09/15_15:06:13,0.08223919699,1.273197475e-313,0
2024/09/15_15:06:13,0.07707629516,1.273197475e-313,0
2024/09/15_15:06:13,0.07322933183,1.273197475e-313,0
2024/09/15_15:06:13,0.07093440454,1.273197475e-313,0
2024/09/15_15:06:13,0.07004973229,1.273197475e-313,0
2024/09/15_15:06:13,0.07030664635,1.273197475e-313,0
2024/09/15_15:06:13,0.0714363854,1.273197475e-313,0
2024/09/15_15:06:13,0.07317017249,1.273197475e-313,0
2024/09/15_15:06:13,0.07523922023,1.273197475e-313,0
2024/09/15_15:06:13,0.07737474302,1.273197475e-313,0
2024/09/15_15:06:13,0.07930795732,1.273197475e-313,0
2024/09/15_15:06:13,0.08077008163,1.273197475e-313,0
2024/09/15_15:06:13,0.08149233652,1.273197475e-313,0
2024/09/15_15:06:13,0.08125398803,1.273197475e-313,0
2024/09/15_15:06:13,0.08010068031,1.273197475e-313,0
2024/09/15_15:06:13,0.07816985639,1.273197475e-313,0
2024/09/15_15:06:13,0.07559904692,1.273197475e-313,0
2024/09/15_15:06:13,0.07252578462,1.273197475e-313,0
2024/09/15_15:06:13,0.06908760422,1.273197475e-313,0
2024/09/15_15:06:13,0.06542204256,1.273197475e-313,0
2024/09/15_15:06:13,0.06166663848,1.273197475e-313,0
2024/09/15_15:06:13,0.05795893291,1.273197475e-313,0
2024/09/15_15:06:13,0.05443646881,1.273197475e-313,0
2024/09/15_15:06:13,0.05121698147,1.273197475e-313,0
2024/09/15_15:06:13,0.04830529776,1.273197475e-313,0
2024/09/15_15:06:13,0.04566630191,1.273197475e-313,0
2024/09/15_15:06:13,0.04326483398,1.273197475e-313,0
2024/09/15_15:06:13,0.04106573607,1.273197475e-313,0
2024/09/15_15:06:13,0.03903385234,1.273197475e-313,0
2024/09/15_15:06:13,0.037134029,1.273197475e-313,0
2024/09/15_15:06:13,0.0353311143,1.273197475e-313,0
2024/09/15_15:06:13,0.03358995857,1.273197475e-313,0
2024/09/15_15:06:13,0.03187541416,1.273197475e-313,0
2024/09/15_15:06:13,0.03015973832,1.273197475e-313,0
2024/09/15_15:06:13,0.02845857058,1.273197475e-313,0
2024/09/15_15:06:13,0.02680330556,1.273197475e-313,0
2024/09/15_15:06:13,0.02522536221,1.273197475e-313,0
2024/09/15_15:06:13,0.02375616153,1.273197475e-313,0
2024/09/15_15:06:13,0.02242712655,1.273197475e-313,0
2024/09/15_15:06:13,0.02126968239,1.273197475e-313,0
2024/09/15_15:06:13,0.02031525618,1.273197475e-313,0
2024/09/15_15:06:13,0.01959527715,1.273197475e-313,0
2024/09/15_15:06:13,0.01914117653,1.273197475e-313,0
2024/09/15_15:06:13,0.01897443984,1.273197475e-313,0
2024/09/15_15:06:13,0.01905661613,1.273197475e-313,0
2024/09/15_15:06:13,0.01932691641,1.273197475e-313,0
2024/09/15_15:06:13,0.01972451583,1.273197475e-313,0
2024/09/15_15:06:13,0.02018859158,1.273197475e-313,0
2024/09/15_15:06:13,0.0206583229,1.273197475e-313,0
2024/09/15_15:06:13,0.02107289109,1.273197475e-313,0
2024/09/15_15:06:13,0.02137147949,1.273197475e-313,0
2024/09/15_15:06:13,0.02149327349,1.273197475e-313,0
2024/09/15_15:06:13,0.02137746055,1.273197475e-313,0
2024/09/15_15:06:13,0.02097777674,1.273197475e-313,0
2024/09/15_15:06:13,0.02033809094,1.273197475e-313,0
2024/09/15_15:06:13,0.0195367498,1.273197475e-313,0
2024/09/15_15:06:13,0.01865217149,1.273197475e-313,0
2024/09/15_15:06:13,0.01776277625,1.273197475e-313,0
2024/09/15_15:06:13,0.01694698637,1.273197475e-313,0
2024/09/15_15:06:13,0.01628322617,1.273197475e-313,0
2024/09/15_15:06:13,0.01584992206,1.273197475e-313,0
2024/09/15_15:06:13,0.01572550247,1.273197475e-313,0
2024/09/15_15:06:13,0.01598839789,1.273197475e-313,0
2024/09/15_15:06:13,0.01669823154,1.273197475e-313,0
2024/09/15_15:06:13,0.01779476862,1.273197475e-313,0
2024/09/15_15:06:13,0.0191707295,1.273197475e-313,0
2024/09/15_15:06:13,0.02071872536,1.273197475e-313,0
2024/09/15_15:06:13,0.02233136939,1.273197475e-313,0
2024/09/15_15:06:13,0.02390127687,1.273197475e-313,0
2024/09/15_15:06:13,0.02532106513,1.273197475e-313,0
2024/09/15_15:06:13,0.02648335352,1.273197475e-313,0
2024/09/15_15:06:13,0.02728076347,1.273197475e-313,0
2024/09/15_15:06:13,0.02760591847,1.273197475e-313,0
2024/09/15_15:06:13,0.0273722493,1.273197475e-313,0
2024/09/15_15:06:13,0.02662955899,1.273197475e-313,0
2024/09/15_15:06:13,0.02548257487,1.273197475e-313,0
2024/09/15_15:06:13,0.02403617717,1.273197475e-313,0
2024/09/15_15:06:13,0.02239524817,1.273197475e-313,0
2024/09/15_15:06:13,0.0206646722,1.273197475e-313,0
2024/09/15_15:06:13,0.01894933564,1.273197475e-313,0
2024/09/15_15:06:13,0.01735412695,1.273197475e-313,0
2024/09/15_15:06:13,0.01598393659,1.273197475e-313,0
2024/09/15_15:06:13,0.01494365713,1.273197475e-313,0
2024/09/15_15:06:13,0.01432145508,1.273197475e-313,0
2024/09/15_15:06:13,0.01409270195,1.273197475e-313,0
2024/09/15_15:06:13,0.0141861639,1.273197475e-313,0
2024/09/15_15:06:13,0.0145304618,1.273197475e-313,0
2024/09/15_15:06:13,0.01505421855,1.273197475e-313,0
2024/09/15_15:06:13,0.01568605913,1.273197475e-313,0
2024/09/15_15:06:13,0.01635482013,1.273197475e-313,0
2024/09/15_15:06:13,0.0169907654,1.273197475e-313,0
2024/09/15_15:06:13,0.01752322682,1.273197475e-313,0
2024/09/15_15:06:13,0.01788127249,1.273197475e-313,0
2024/09/15_15:06:13,0.01800598515,1.273197475e-313,0
2024/09/15_15:06:13,0.01792178238,1.273197475e-313,0
2024/09/15_15:06:13,0.01768840016,1.273197475e-313,0
2024/09/15_15:06:13,0.01736567545,1.273197475e-313,0
2024/09/15_15:06:13,0.01701344117,1.273197475e-313,0
2024/09/15_15:06:13,0.01669153367,1.273197475e-313,0
2024/09/15_15:06:13,0.01645979271,1.273197475e-313,0
2024/09/15_15:06:13,0.01637806153,1.273197475e-313,0
2024/09/15_15:06:13,0.01650618674,1.273197475e-313,0
2024/09/15_15:06:13,0.01690401844,1.273197475e-313,0
2024/09/15_15:06:13,0.01761944201,1.273197475e-313,0
2024/09/15_15:06:13,0.01861490156,1.273197475e-313,0
2024/09/15_15:06:13,0.01981569385,1.273197475e-313,0
2024/09/15_15:06:13,0.02114696701,1.273197475e-313,0
2024/09/15_15:06:13,0.02253387263,1.273197475e-313,0
2024/09/15_15:06:13,0.02390156573,1.273197475e-313,0
2024/09/15_15:06:13,0.02517520475,1.273197475e-313,0
2024/09/15_15:06:13,0.02627995156,1.273197475e-313,0
2024/09/15_15:06:13,0.02714097148,1.273197475e-313,0
2024/09/15_15:06:13,0.02768343323,1.273197475e-313,0
2024/09/15_15:06:13,0.027851683,1.273197475e-313,0
2024/09/15_15:06:13,0.02773096122,1.273197475e-313,0
2024/09/15_15:06:13,0.02746934121,1.273197475e-313,0
2024/09/15_15:06:13,0.02721518931,1.273197475e-313,0
2024/09/15_15:06:13,0.02711687529,1.273197475e-313,0
2024/09/15_15:06:13,0.02732277236,1.273197475e-313,0
2024/09/15_15:06:13,0.02798125716,1.273197475e-313,0
2024/09/15_15:06:13,0.02924070977,1.273197475e-313,0
2024/09/15_15:06:13,0.03124951368,1.273197475e-313,0
2024/09/15_15:06:13,0.03415605583,1.273197475e-313,0
2024/09/15_15:06:13,0.03807346062,1.273197475e-313,0
2024/09/15_15:06:13,0.04284810118,1.273197475e-313,0
2024/09/15_15:06:13,0.0482043575,1.273197475e-313,0
2024/09/15_15:06:13,0.05386598335,1.273197475e-313,0
2024/09/15_15:06:13,0.05955673594,1.273197475e-313,0
2024/09/15_15:06:13,0.06500037589,1.273197475e-313,0
2024/09/15_15:06:13,0.06992066729,1.273197475e-313,0
2024/09/15_15:06:13,0.07404137763,1.273197475e-313,0
2024/09/15_15:06:13,0.07708627785,1.273197475e-313,0
2024/09/15_15:06:13,0.07877914231,1.273197475e-313,0
2024/09/15_15:06:13,0.07888583351,1.273197475e-313,0
2024/09/15_15:06:13,0.07749997039,1.273197475e-313,0
2024/09/15_15:06:13,0.07486888312,1.273197475e-313,0
2024/09/15_15:06:13,0.07124078878,1.273197475e-313,0
2024/09/15_15:06:13,0.06686390786,1.273197475e-313,0
2024/09/15_15:06:13,0.06198646432,1.273197475e-313,0
2024/09/15_15:06:13,0.05685668552,1.273197475e-313,0
2024/09/15_15:06:13,0.05172280227,1.273197475e-313,0
2024/09/15_15:06:13,0.04683304881,1.273197475e-313,0
2024/09/15_15:06:13,0.0424356628,1.273197475e-313,0
2024/09/15_15:06:13,0.03875289568,1.273197475e-313,0
2024/09/15_15:06:13,0.03579856612,1.273197475e-313,0
2024/09/15_15:06:13,0.03348626687,1.273197475e-313,0
2024/09/15_15:06:13,0.03172895564,1.273197475e-313,0
2024/09/15_15:06:13,0.03043959361,1.273197475e-313,0
2024/09/15_15:06:13,0.02953114536,1.273197475e-313,0
2024/09/15_15:06:13,0.02891657891,1.273197475e-313,0
2024/09/15_15:06:13,0.02850886571,1.273197475e-313,0
2024/09/15_15:06:13,0.02822098067,1.273197475e-313,0
2024/09/15_15:06:13,0.02796590208,1.273197475e-313,0
2024/09/15_15:06:13,0.02766683553,1.273197475e-313,0
2024/09/15_15:06:13,0.02733144488,1.273197475e-313,0
2024/09/15_15:06:13,0.02700903437,1.273197475e-313,0
2024/09/15_15:06:13,0.02674920426,1.273197475e-313,0
2024/09/15_15:06:13,0.02660155826,1.273197475e-313,0
2024/09/15_15:06:13,0.0266157035,1.273197475e-313,0
2024/09/15_15:06:13,0.02684125055,1.273197475e-313,0
2024/09/15_15:06:13,0.0273278134,1.273197475e-313,0
2024/09/15_15:06:13,0.02812500949,1.273197475e-313,0
2024/09/15_15:06:13,0.02928245968,1.273197475e-313,0
2024/09/15_15:06:13,0.03083977255,1.273197475e-313,0
2024/09/15_15:06:13,0.03275132399,1.273197475e-313,0
2024/09/15_15:06:13,0.03492841377,1.273197475e-313,0
2024/09/15_15:06:13,0.03728201245,1.273197475e-313,0
2024/09/15_15:06:13,0.03972309405,1.273197475e-313,0
2024/09/15_15:06:13,0.04216263601,1.273197475e-313,0
2024/09/15_15:06:13,0.0445116192,1.273197475e-313,0
2024/09/15_15:06:13,0.04668102792,1.273197475e-313,0
2024/09/15_15:06:13,0.0485818499,1.273197475e-313,0
2024/09/15_15:06:13,0.05012507633,1.273197475e-313,0
2024/09/15_15:06:13,0.05123314342,1.273197475e-313,0
2024/09/15_15:06:13,0.05192493666,1.273197475e-313,0
2024/09/15_15:06:13,0.05226660912,1.273197475e-313,0
2024/09/15_15:06:13,0.05232457948,1.273197475e-313,0
2024/09/15_15:06:13,0.05216529506,1.273197475e-313,0
2024/09/15_15:06:13,0.05185523182,1.273197475e-313,0
2024/09/15_15:06:13,0.05146089435,1.273197475e-313,0
2024/09/15_15:06:13,0.05104881589,1.273197475e-313,0
2024/09/15_15:06:13,0.0506855583,1.273197475e-313,0
2024/09/15_15:06:13,0.05043771211,1.273197475e-313,0
2024/09/15_15:06:13,0.0503651152,1.273197475e-313,0
2024/09/15_15:06:13,0.05046634125,1.273197475e-313,0
2024/09/15_15:06:13,0.05070744404,1.273197475e-313,0
2024/09/15_15:06:13,0.05105420605,1.273197475e-313,0
2024/09/15_15:06:13,0.05147243841,1.273197475e-313,0
2024/09/15_15:06:13,0.05192798087,1.273197475e-313,0
2024/09/15_15:06:13,0.05238670182,1.273197475e-313,0
2024/09/15_15:06:13,0.05281449831,1.273197475e-313,0
2024/09/15_15:06:13,0.053177296,1.273197475e-313,0
2024/09/15_15:06:13,0.05344104921,1.273197475e-313,0
2024/09/15_15:06:13,0.05357502942,1.273197475e-313,0
2024/09/15_15:06:13,0.05357918029,1.273197475e-313,0
2024/09/15_15:06:13,0.05347015201,1.273197475e-313,0
2024/09/15_15:06:13,0.0532648235,1.273197475e-313,0
2024/09/15_15:06:13,0.05298023425,1.273197475e-313,0
2024/09/15_15:06:13,0.05263348542,1.273197475e-313,0
2024/09/15_15:06:13,0.05224170679,1.273197475e-313,0
2024/09/15_15:06:13,0.05182205677,1.273197475e-313,0
2024/09/15_15:06:13,0.05139172242,1.273197475e-313,0
2024/09/15_15:06:13,0.05096791944,1.273197475e-313,0
2024/09/15_15:06:13,0.05056649935,1.273197475e-313,0
2024/09/15_15:06:13,0.05018995853,1.273197475e-313,0
2024/09/15_15:06:13,0.04983335701,1.273197475e-313,0
2024/09/15_15:06:13,0.04949170243,1.273197475e-313,0
2024/09/15_15:06:13,0.04916003106,1.273197475e-313,0
2024/09/15_15:06:13,0.04883340782,1.273197475e-313,0
2024/09/15_15:06:13,0.04850692626,1.273197475e-313,0
2024/09/15_15:06:13,0.04817570958,1.273197475e-313,0
2024/09/15_15:06:13,0.0478349266,1.273197475e-313,0
2024/09/15_15:06:13,0.04747978886,1.273197475e-313,0
2024/09/15_15:06:13,0.04710697702,1.273197475e-313,0
2024/09/15_15:06:13,0.04672747377,1.273197475e-313,0
2024/09/15_15:06:13,0.04636044856,1.273197475e-313,0
2024/09/15_15:06:13,0.04602519519,1.273197475e-313,0
2024/09/15_15:06:13,0.04574103609,1.273197475e-313,0
2024/09/15_15:06:13,0.04552732233,1.273197475e-313,0
2024/09/15_15:06:13,0.04540343364,1.273197475e-313,0
2024/09/15_15:06:13,0.04538877836,1.273197475e-313,0
2024/09/15_15:06:13,0.04550279348,1.273197475e-313,0
2024/09/15_15:06:13,0.04576494463,1.273197475e-313,0
2024/09/15_15:06:13,0.04619375346,1.273197475e-313,0
2024/09/15_15:06:13,0.04679782355,1.273197475e-313,0
2024/09/15_15:06:13,0.04757996175,1.273197475e-313,0
2024/09/15_15:06:13,0.04854292991,1.273197475e-313,0
2024/09/15_15:06:13,0.04968951849,1.273197475e-313,0
2024/09/15_15:06:13,0.05102254663,1.273197475e-313,0
2024/09/15_15:06:13,0.05254486206,1.273197475e-313,0
2024/09/15_15:06:13,0.0542593412,1.273197475e-313,0
2024/09/15_15:06:13,0.05616888907,1.273197475e-313,0
2024/09/15_15:06:13,0.05827643934,1.273197475e-313,0
2024/09/15_15:06:13,0.06057955973,1.273197475e-313,0
2024/09/15_15:06:13,0.06301890845,1.273197475e-313,0
2024/09/15_15:06:13,0.06550100613,1.273197475e-313,0
2024/09/15_15:06:13,0.06793193761,1.273197475e-313,0
2024/09/15_15:06:13,0.07021781635,1.273197475e-313,0
2024/09/15_15:06:13,0.07226478447,1.273197475e-313,0
2024/09/15_15:06:13,0.0739790127,1.273197475e-313,0
2024/09/15_15:06:13,0.07526670045,1.273197475e-313,0
2024/09/15_15:06:13,0.07603000735,1.273197475e-313,0
2024/09/15_15:06:13,0.07616542894,1.273197475e-313,0
2024/09/15_15:06:13,0.07559607373,1.273197475e-313,0
2024/09/15_15:06:13,0.07439839548,1.273197475e-313,0
2024/09/15_15:06:13,0.0727425814,1.273197475e-313,0
2024/09/15_15:06:13,0.07080000301,1.273197475e-313,0
2024/09/15_15:06:13,0.06874184675,1.273197475e-313,0
2024/09/15_15:06:13,0.06673911403,1.273197475e-313,0
2024/09/15_15:06:13,0.06496262117,1.273197475e-313,0
2024/09/15_15:06:13,0.06358299946,1.273197475e-313,0
2024/09/15_15:06:13,0.06277069512,1.273197475e-313,0
2024/09/15_15:06:13,0.06269596931,1.273197475e-313,0
2024/09/15_15:06:13,0.06351215087,1.273197475e-313,0
2024/09/15_15:06:13,0.06518392666,1.273197475e-313,0
2024/09/15_15:06:13,0.06755710774,1.273197475e-313,0
2024/09/15_15:06:13,0.07047546802,1.273197475e-313,0
2024/09/15_15:06:13,0.07378259631,1.273197475e-313,0
2024/09/15_15:06:13,0.07732189642,1.273197475e-313,0
2024/09/15_15:06:13,0.08093658706,1.273197475e-313,0
2024/09/15_15:06:13,0.08446970189,1.273197475e-313,0
2024/09/15_15:06:13,0.08776408953,1.273197475e-313,0
2024/09/15_15:06:13,0.09066241353,1.273197475e-313,0
2024/09/15_15:06:13,0.09301970775,1.273197475e-313,0
2024/09/15_15:06:13,0.09483677712,1.273197475e-313,0
2024/09/15_15:06:13,0.09620840675,1.273197475e-313,0
2024/09/15_15:06:13,0.09723076614,1.273197475e-313,0
2024/09/15_15:06:13,0.09799983971,1.273197475e-313,0
2024/09/15_15:06:13,0.09861142681,1.273197475e-313,0
2024/09/15_15:06:13,0.09916114178,1.273197475e-313,0
2024/09/15_15:06:13,0.09974441384,1.273197475e-313,0
2024/09/15_15:06:13,0.1004564872,1.273197475e-313,0
2024/09/15_15:06:13,0.101392421,1.273197475e-313,0
2024/09/15_15:06:13,0.1026404314,1.273197475e-313,0
2024/09/15_15:06:13,0.1042085638,1.273197475e-313,0
2024/09/15_15:06:13,0.1060518201,1.273197475e-313,0
2024/09/15_15:06:13,0.1081240778,1.273197475e-313,0
2024/09/15_15:06:13,0.1103790294,1.273197475e-313,0
2024/09/15_15:06:13,0.1127701825,1.273197475e-313,0
2024/09/15_15:06:13,0.1152508593,1.273197475e-313,0
2024/09/15_15:06:13,0.1177741972,1.273197475e-313,0
2024/09/15_15:06:13,0.1202931485,1.273197475e-313,0
2024/09/15_15:06:13,0.1227604805,1.273197475e-313,0
2024/09/15_15:06:13,0.1251324513,1.273197475e-313,0
2024/09/15_15:06:13,0.1274107881,1.273197475e-313,0
2024/09/15_15:06:13,0.1296279357,1.273197475e-313,0
2024/09/15_15:06:13,0.1318167381,1.273197475e-313,0
2024/09/15_15:06:13,0.1340098544,1.273197475e-313,0
2024/09/15_15:06:13,0.1362397584,1.273197475e-313,0
2024/09/15_15:06:13,0.1385387389,1.273197475e-313,0
2024/09/15_15:06:13,0.1409388998,1.273197475e-313,0
2024/09/15_15:06:13,0.1434721598,1.273197475e-313,0
2024/09/15_15:06:13,0.1461702525,1.273197475e-313,0
2024/09/15_15:06:13,0.149064481,1.273197475e-313,0
2024/09/15_15:06:13,0.1521828094,1.273197475e-313,0
2024/09/15_15:06:13,0.1555508303,1.273197475e-313,0
2024/09/15_15:06:13,0.159193907,1.273197475e-313,0
2024/09/15_15:06:13,0.1631372002,1.273197475e-313,0
2024/09/15_15:06:13,0.1674056129,1.273197475e-313,0
2024/09/15_15:06:13,0.1720238452,1.273197475e-313,0
2024/09/15_15:06:13,0.1770164122,1.273197475e-313,0
2024/09/15_15:06:13,0.1824145008,1.273197475e-313,0
2024/09/15_15:06:13,0.188255638,1.273197475e-313,0
2024/09/15_15:06:13,0.1945519952,1.273197475e-313,0
2024/09/15_15:06:13,0.2012442391,1.273197475e-313,0
2024/09/15_15:06:13,0.2082230376,1.273197475e-313,0
2024/09/15_15:06:13,0.2153783732,1.273197475e-313,0
2024/09/15_15:06:13,0.2226006164,1.273197475e-313,0
2024/09/15_15:06:13,0.2297805253,1.273197475e-313,0
2024/09/15_15:06:13,0.236809246,1.273197475e-313,0
2024/09/15_15:06:13,0.2435783122,1.273197475e-313,0
2024/09/15_15:06:13,0.2499796454,1.273197475e-313,0
2024/09/15_15:06:13,0.2559055552,1.273197475e-313,0
2024/09/15_15:06:13,0.2612566905,1.273197475e-313,0
2024/09/15_15:06:13,0.2660434505,1.273197475e-313,0
2024/09/15_15:06:13,0.2703561446,1.273197475e-313,0
2024/09/15_15:06:13,0.2742872636,1.273197475e-313,0
2024/09/15_15:06:13,0.2779296856,1.273197475e-313,0
2024/09/15_15:06:13,0.281376677,1.273197475e-313,0
2024/09/15_15:06:13,0.2847218918,1.273197475e-313,0
2024/09/15_15:06:13,0.2880593717,1.273197475e-313,0
2024/09/15_15:06:13,0.2914835463,1.273197475e-313,0
2024/09/15_15:06:13,0.2950892331,1.273197475e-313,0
2024/09/15_15:06:13,0.2989622388,1.273197475e-313,0
2024/09/15_15:06:13,0.3030549238,1.273197475e-313,0
2024/09/15_15:06:13,0.3072203764,1.273197475e-313,0
2024/09/15_15:06:13,0.3113096966,1.273197475e-313,0
2024/09/15_15:06:13,0.3151743721,1.273197475e-313,0
2024/09/15_15:06:13,0.3186662784,1.273197475e-313,0
2024/09/15_15:06:13,0.3216376788,1.273197475e-313,0
2024/09/15_15:06:13,0.3239412244,1.273197475e-313,0
2024/09/15_15:06:13,0.325429954,1.273197475e-313,0
2024/09/15_15:06:13,0.3259572943,1.273197475e-313,0
2024/09/15_15:06:13,0.3253895923,1.273197475e-313,0
2024/09/15_15:06:13,0.323778454,1.273197475e-313,0
2024/09/15_15:06:13,0.3213168441,1.273197475e-313,0
2024/09/15_15:06:13,0.3182016648,1.273197475e-313,0
2024/09/15_15:06:13,0.3146302059,1.273197475e-313,0
2024/09/15_15:06:13,0.3108001452,1.273197475e-313,0
2024/09/15_15:06:13,0.306909548,1.273197475e-313,0
2024/09/15_15:06:13,0.3031568676,1.273197475e-313,0
2024/09/15_15:06:13,0.2997409453,1.273197475e-313,0
2024/09/15_15:06:13,0.2968610096,1.273197475e-313,0
2024/09/15_15:06:13,0.2947037449,1.273197475e-313,0
2024/09/15_15:06:13,0.2932585096,1.273197475e-313,0
2024/09/15_15:06:13,0.2923606704,1.273197475e-313,0
2024/09/15_15:06:13,0.2918418829,1.273197475e-313,0
2024/09/15_15:06:13,0.2915341904,1.273197475e-313,0
2024/09/15_15:06:13,0.2912700241,1.273197475e-313,0
2024/09/15_15:06:13,0.2908822028,1.273197475e-313,0
2024/09/15_15:06:13,0.2902039332,1.273197475e-313,0
2024/09/15_15:06:13,0.2890688099,1.273197475e-313,0
2024/09/15_15:06:13,0.2873108151,1.273197475e-313,0
2024/09/15_15:06:13,0.2847736737,1.273197475e-313,0
2024/09/15_15:06:13,0.2814497878,1.273197475e-313,0
2024/09/15_15:06:13,0.2774505082,1.273197475e-313,0
2024/09/15_15:06:13,0.2728908891,1.273197475e-313,0
2024/09/15_15:06:13,0.2678863726,1.273197475e-313,0
2024/09/15_15:06:13,0.2625527885,1.273197475e-313,0
2024/09/15_15:06:13,0.2570063544,1.273197475e-313,0
2024/09/15_15:06:13,0.2513636757,1.273197475e-313,0
2024/09/15_15:06:13,0.2457370521,1.273197475e-313,0
2024/09/15_15:06:13,0.2402339921,1.273197475e-313,0
2024/09/15_15:06:13,0.2349683818,1.273197475e-313,0
2024/09/15_15:06:13,0.2299840249,1.273197475e-313,0
2024/09/15_15:06:13,0.2252669715,1.273197475e-313,0
2024/09/15_15:06:13,0.2208013084,1.273197475e-313,0
2024/09/15_15:06:13,0.2165708497,1.273197475e-313,0
2024/09/15_15:06:13,0.2125591377,1.273197475e-313,0
2024/09/15_15:06:13,0.2087494417,1.273197475e-313,0
2024/09/15_15:06:13,0.2051247592,1.273197475e-313,0
2024/09/15_15:06:13,0.2016678151,1.273197475e-313,0
2024/09/15_15:06:13,0.1983610619,1.273197475e-313,0
2024/09/15_15:06:13,0.1951857883,1.273197475e-313,0
2024/09/15_15:06:13,0.1921077918,1.273197475e-313,0
2024/09/15_15:06:13,0.1890798416,1.273197475e-313,0
2024/09/15_15:06:13,0.1860540399,1.273197475e-313,0
2024/09/15_15:06:13,0.1829822168,1.273197475e-313,0
2024/09/15_15:06:13,0.1798159299,1.273197475e-313,0
2024/09/15_15:06:13,0.1765064645,1.273197475e-313,0
2024/09/15_15:06:13,0.1730048335,1.273197475e-313,0
2024/09/15_15:06:13,0.1692617776,1.273197475e-313,0
2024/09/15_15:06:13,0.1652277648,1.273197475e-313,0
2024/09/15_15:06:13,0.1608554975,1.273197475e-313,0
2024/09/15_15:06:13,0.1561418318,1.273197475e-313,0
2024/09/15_15:06:13,0.151121478,1.273197475e-313,0
2024/09/15_15:06:13,0.1458301114,1.273197475e-313,0
2024/09/15_15:06:13,0.1403031349,1.273197475e-313,0
2024/09/15_15:06:13,0.1345756792,1.273197475e-313,0
2024/09/15_15:06:13,0.1286826025,1.273197475e-313,0
2024/09/15_15:06:13,0.1226584906,1.273197475e-313,0
2024/09/15_15:06:13,0.1165376572,1.273197475e-313,0
2024/09/15_15:06:13,0.1103541433,1.273197475e-313,0
2024/09/15_15:06:13,0.1041427375,1.273197475e-313,0
2024/09/15_15:06:13,0.09795673525,1.273197475e-313,0
2024/09/15_15:06:13,0.09186566053,1.273197475e-313,0
2024/09/15_15:06:13,0.08593932645,1.273197475e-313,0
2024/09/15_15:06:13,0.08024727381,1.273197475e-313,0
2024/09/15_15:06:13,0.07485873746,1.273197475e-313,0
2024/09/15_15:06:13,0.06984254578,1.273197475e-313,0
2024/09/15_15:06:13,0.06526722122,1.273197475e-313,0
2024/09/15_15:06:13,0.0612010139,1.273197475e-313,0
2024/09/15_15:06:13,0.05771190156,1.273197475e-313,0
2024/09/15_15:06:13,0.0548627402,1.273197475e-313,0
2024/09/15_15:06:13,0.05262325132,1.273197475e-313,0
2024/09/15_15:06:13,0.05087934552,1.273197475e-313,0
2024/09/15_15:06:13,0.04951368294,1.273197475e-313,0
2024/09/15_15:06:13,0.04840865133,1.273197475e-313,0
2024/09/15_15:06:13,0.04744636612,1.273197475e-313,0
2024/09/15_15:06:13,0.04650867037,1.273197475e-313,0
2024/09/15_15:06:13,0.04547713478,1.273197475e-313,0
2024/09/15_15:06:13,0.04423305772,1.273197475e-313,0
2024/09/15_15:06:13,0.0426574652,1.273197475e-313,0
2024/09/15_15:06:13,0.04063820618,1.273197475e-313,0
2024/09/15_15:06:13,0.03820420731,1.273197475e-313,0
2024/09/15_15:06:13,0.03551430144,1.273197475e-313,0
2024/09/15_15:06:13,0.03273189984,1.273197475e-313,0
2024/09/15_15:06:13,0.03002014111,1.273197475e-313,0
2024/09/15_15:06:13,0.02754189152,1.273197475e-313,0
2024/09/15_15:06:13,0.02545974499,1.273197475e-313,0
2024/09/15_15:06:13,0.02393945288,1.273197475e-313,0
2024/09/15_15:06:13,0.02319544336,1.273197475e-313,0
2024/09/15_15:06:13,0.02338949055,1.273197475e-313,0
2024/09/15_15:06:13,0.02465147087,1.273197475e-313,0
2024/09/15_15:06:13,0.02691614965,1.273197475e-313,0
2024/09/15_15:06:13,0.02993437124,1.273197475e-313,0
2024/09/15_15:06:13,0.03345073242,1.273197475e-313,0
2024/09/15_15:06:13,0.03721079668,1.273197475e-313,0
2024/09/15_15:06:13,0.04096109417,1.273197475e-313,0
2024/09/15_15:06:13,0.04444912175,1.273197475e-313,0
2024/09/15_15:06:13,0.04742334293,1.273197475e-313,0
2024/09/15_15:06:13,0.04963318794,1.273197475e-313,0
2024/09/15_15:06:13,0.05082905367,1.273197475e-313,0
2024/09/15_15:06:13,0.05077133997,1.273197475e-313,0
2024/09/15_15:06:13,0.04941662988,1.273197475e-313,0
2024/09/15_15:06:13,0.04691092734,1.273197475e-313,0
2024/09/15_15:06:13,0.04340888622,1.273197475e-313,0
2024/09/15_15:06:13,0.03906612706,1.273197475e-313,0
2024/09/15_15:06:13,0.0340392371,1.273197475e-313,0
2024/09/15_15:06:13,0.02848577026,1.273197475e-313,0
2024/09/15_15:06:13,0.02256424715,1.273197475e-313,0
2024/09/15_15:06:13,0.01643415504,1.273197475e-313,0
2024/09/15_15:06:13,0.01025594792,1.273197475e-313,0
2024/09/15_15:06:13,0.004186299392,1.273197475e-313,0
2024/09/15_15:06:13,-0.001724057447,1.273197475e-313,0
2024/09/15_15:06:13,-0.007529081081,1.273197475e-313,0
2024/09/15_15:06:13,-0.01328626058,1.273197475e-313,0
2024/09/15_15:06:13,-0.01905211832,1.273197475e-313,0
2024/09/15_15:06:13,-0.02488221001,1.273197475e-313,0
2024/09/15_15:06:13,-0.03083112465,1.273197475e-313,0
2024/09/15_15:06:13,-0.03695248457,1.273197475e-313,0
2024/09/15_15:06:13,-0.04329894542,1.273197475e-313,0
2024/09/15_15:06:13,-0.04992219614,1.273197475e-313,0
2024/09/15_15:06:13,-0.05687192605,1.273197475e-313,0
2024/09/15_15:06:13,-0.0641727573,1.273197475e-313,0
2024/09/15_15:06:13,-0.07183343794,1.273197475e-313,0
2024/09/15_15:06:13,-0.07975451152,1.273197475e-313,0
2024/09/15_15:06:13,-0.08778867665,1.273197475e-313,0
2024/09/15_15:06:13,-0.09579149029,1.273197475e-313,0
2024/09/15_15:06:13,-0.1036213678,1.273197475e-313,0
2024/09/15_15:06:13,-0.1111395831,1.273197475e-313,0
2024/09/15_15:06:13,-0.1182102682,1.273197475e-313,0
2024/09/15_15:06:13,-0.1247004137,1.273197475e-313,0
2024/09/15_15:06:13,-0.1304794203,1.273197475e-313,0
2024/09/15_15:06:13,-0.1354085498,1.273197475e-313,0
2024/09/15_15:06:13,-0.1393405306,1.273197475e-313,0
2024/09/15_15:06:13,-0.142130422,1.273197475e-313,0
2024/09/15_15:06:13,-0.143636142,1.273197475e-313,0
2024/09/15_15:06:13,-0.1437184669,1.273197475e-313,0
2024/09/15_15:06:13,-0.1422410312,1.273197475e-313,0
2024/09/15_15:06:13,-0.1390703281,1.273197475e-313,0
2024/09/15_15:06:13,-0.134075709,1.273197475e-313,0
2024/09/15_15:06:13,-0.1271293838,1.273197475e-313,0
2024/09/15_15:06:13,-0.1181074557,1.273197475e-313,0
2024/09/15_15:06:13,-0.106915414,1.273197475e-313,0
2024/09/15_15:06:13,-0.09348973892,1.273197475e-313,0
2024/09/15_15:06:13,-0.07777112593,1.273197475e-313,0
2024/09/15_15:06:13,-0.05970312873,1.273197475e-313,0
2024/09/15_15:06:13,-0.03923215947,1.273197475e-313,0
2024/09/15_15:06:13,-0.0163074887,1.273197475e-313,0
2024/09/15_15:06:13,0.009118754638,1.273197475e-313,0
2024/09/15_15:06:13,0.03709158321,1.273197475e-313,0
2024/09/15_15:06:13,0.06765315127,1.273197475e-313,0
2024/09/15_15:06:13,0.1008426671,1.273197475e-313,0
2024/09/15_15:06:13,0.1367465584,1.273197475e-313,0
2024/09/15_15:06:13,0.1755320369,1.273197475e-313,0
2024/09/15_15:06:13,0.216924243,1.273197475e-313,0
2024/09/15_15:06:13,0.2605878823,1.273197475e-313,0
2024/09/15_15:06:13,0.3061800151,1.273197475e-313,0
2024/09/15_15:06:13,0.3533500566,1.273197475e-313,0
2024/09/15_15:06:13,0.4017397766,1.273197475e-313,0
2024/09/15_15:06:13,0.4509832997,1.273197475e-313,0
2024/09/15_15:06:13,0.5007071052,1.273197475e-313,0
2024/09/15_15:06:13,0.5505337573,1.273197475e-313,0
2024/09/15_15:06:13,0.600182802,1.273197475e-313,0
2024/09/15_15:06:13,0.649482445,1.273197475e-313,0
2024/09/15_15:06:13,0.6982593203,1.273197475e-313,0
2024/09/15_15:06:13,0.7463324167,1.273197475e-313,0
2024/09/15_15:06:13,0.7935130776,1.273197475e-313,0
2024/09/15_15:06:13,0.8396050707,1.273197475e-313,0
2024/09/15_15:06:13,0.8844047956,1.273197475e-313,0
2024/09/15_15:06:13,0.9277010762,1.273197475e-313,0
2024/09/15_15:06:13,0.9692750909,1.273197475e-313,0
2024/09/15_15:06:13,1.00889395,1.273197475e-313,0
2024/09/15_15:06:13,1.046128388,1.273197475e-313,0
2024/09/15_15:06:13,1.080326698,1.273197475e-313,0
2024/09/15_15:06:13,1.110817866,1.273197475e-313,0
2024/09/15_15:06:13,1.136923234,1.273197475e-313,0
2024/09/15_15:06:13,1.157956496,1.273197475e-313,0
2024/09/15_15:06:13,1.173223704,1.273197475e-313,0
2024/09/15_15:06:13,1.182023263,1.273197475e-313,0
2024/09/15_15:06:13,1.183636472,1.273197475e-313,0
2024/09/15_15:06:13,1.177758866,1.273197475e-313,0
2024/09/15_15:06:13,1.164646769,1.273197475e-313,0
2024/09/15_15:06:13,1.144745558,1.273197475e-313,0
2024/09/15_15:06:13,1.118692996,1.273197475e-313,0
2024/09/15_15:06:13,1.087129106,1.273197475e-313,0
2024/09/15_15:06:13,1.050684794,1.273197475e-313,0
2024/09/15_15:06:13,1.009981856,1.273197475e-313,0
2024/09/15_15:06:13,0.9656329742,1.273197475e-313,0
2024/09/15_15:06:13,0.9182417198,1.273197475e-313,0
2024/09/15_15:06:13,0.8684025504,1.273197475e-313,0
2024/09/15_15:06:13,0.8167008113,1.273197475e-313,0
2024/09/15_15:06:13,0.763708177,1.273197475e-313,0
2024/09/15_15:06:13,0.7098397611,1.273197475e-313,0
2024/09/15_15:06:13,0.6553256542,1.273197475e-313,0
2024/09/15_15:06:13,0.600376528,1.273197475e-313,0
2024/09/15_15:06:13,0.5451939419,1.273197475e-313,0
2024/09/15_15:06:13,0.4899703426,1.273197475e-313,0
2024/09/15_15:06:13,0.4348890643,1.273197475e-313,0
2024/09/15_15:06:13,0.3801243289,1.273197475e-313,0
2024/09/15_15:06:13,0.3258412456,1.273197475e-313,0
2024/09/15_15:06:13,0.2721958112,1.273197475e-313,0
2024/09/15_15:06:13,0.219340371,1.273197475e-313,0
2024/09/15_15:06:13,0.1676037879,1.273197475e-313,0
2024/09/15_15:06:13,0.1175325643,1.273197475e-313,0
2024/09/15_15:06:13,0.06967787938,1.273197475e-313,0
2024/09/15_15:06:13,0.02458179956,1.273197475e-313,0
2024/09/15_15:06:13,-0.01726726259,1.273197475e-313,0
2024/09/15_15:06:13,-0.05568999963,1.273197475e-313,0
2024/09/15_15:06:13,-0.09049267153,1.273197475e-313,0
2024/09/15_15:06:13,-0.1214677498,1.273197475e-313,0
2024/09/15_15:06:13,-0.1484146026,1.273197475e-313,0
2024/09/15_15:06:13,-0.1711470838,1.273197475e-313,0
2024/09/15_15:06:13,-0.1897573173,1.273197475e-313,0
2024/09/15_15:06:13,-0.2046837419,1.273197475e-313,0
2024/09/15_15:06:13,-0.2163931054,1.273197475e-313,0
2024/09/15_15:06:13,-0.2253590521,1.273197475e-313,0
2024/09/15_15:06:13,-0.2320621227,1.273197475e-313,0
2024/09/15_15:06:13,-0.2369897549,1.273197475e-313,0
2024/09/15_15:06:13,-0.2406362828,1.273197475e-313,0
2024/09/15_15:06:13,-0.2435029372,1.273197475e-313,0
2024/09/15_15:06:13,-0.2460978455,1.273197475e-313,0
2024/09/15_15:06:13,-0.2489249053,1.273197475e-313,0
2024/09/15_15:06:13,-0.252075869,1.273197475e-313,0
2024/09/15_15:06:13,-0.2551127201,1.273197475e-313,0
2024/09/15_15:06:13,-0.2575692347,1.273197475e-313,0
2024/09/15_15:06:13,-0.2589860859,1.273197475e-313,0
2024/09/15_15:06:13,-0.258910843,1.273197475e-313,0
2024/09/15_15:06:13,-0.2568979724,1.273197475e-313,0
2024/09/15_15:06:13,-0.2525088367,1.273197475e-313,0
2024/09/15_15:06:13,-0.2453116954,1.273197475e-313,0
2024/09/15_15:06:13,-0.2348817044,1.273197475e-313,0
2024/09/15_15:06:13,-0.220814743,1.273197475e-313,0
2024/09/15_15:06:13,-0.2032627146,1.273197475e-313,0
2024/09/15_15:06:13,-0.1831045539,1.273197475e-313,0
2024/09/15_15:06:13,-0.1612555669,1.273197475e-313,0
2024/09/15_15:06:13,-0.1384670227,1.273197475e-313,0
2024/09/15_15:06:13,-0.1154789688,1.273197475e-313,0
2024/09/15_15:06:13,-0.09303982397,1.273197475e-313,0
2024/09/15_15:06:13,-0.07189375242,1.273197475e-313,0
2024/09/15_15:06:13,-0.05278066367,1.273197475e-313,0
2024/09/15_15:06:13,-0.0364362126,1.273197475e-313,0
2024/09/15_15:06:13,-0.02357974423,1.273197475e-313,0
2024/09/15_15:06:13,-0.01442079615,1.273197475e-313,0
2024/09/15_15:06:13,-0.008485734454,1.273197475e-313,0
2024/09/15_15:06:13,-0.005248994953,1.273197475e-313,0
2024/09/15_15:06:13,-0.004180758806,1.273197475e-313,0
2024/09/15_15:06:13,-0.004746952544,1.273197475e-313,0
2024/09/15_15:06:13,-0.006409248061,1.273197475e-313,0
2024/09/15_15:06:13,-0.00862506262,1.273197475e-313,0
2024/09/15_15:06:13,-0.01084755885,1.273197475e-313,0
2024/09/15_15:06:13,-0.01252564473,1.273197475e-313,0
2024/09/15_15:06:13,-0.01311139731,1.273197475e-313,0
2024/09/15_15:06:13,-0.01238182072,1.273197475e-313,0
2024/09/15_15:06:13,-0.01056236751,1.273197475e-313,0
2024/09/15_15:06:13,-0.007907152409,1.273197475e-313,0
2024/09/15_15:06:13,-0.004666035522,1.273197475e-313,0
2024/09/15_15:06:13,-0.001084622312,1.273197475e-313,0
2024/09/15_15:06:13,0.002595736391,1.273197475e-313,0
2024/09/15_15:06:13,0.00613794439,1.273197475e-313,0
2024/09/15_15:06:13,0.009309160085,1.273197475e-313,0
2024/09/15_15:06:13,0.01183506359,1.273197475e-313,0
2024/09/15_15:06:13,0.0134111864,1.273197475e-313,0
2024/09/15_15:06:13,0.01395686898,1.273197475e-313,0
2024/09/15_15:06:13,0.01366826847,1.273197475e-313,0
2024/09/15_15:06:13,0.01276190528,1.273197475e-313,0
2024/09/15_15:06:13,0.01145379252,1.273197475e-313,0
2024/09/15_15:06:13,0.009959436126,1.273197475e-313,0
2024/09/15_15:06:13,0.008493834754,1.273197475e-313,0
2024/09/15_15:06:13,0.007271421963,1.273197475e-313,0
2024/09/15_15:06:13,0.006505892557,1.273197475e-313,0
2024/09/15_15:06:13,0.006410376221,1.273197475e-313,0
2024/09/15_15:06:13,0.007194040883,1.273197475e-313,0
2024/09/15_15:06:13,0.008893525434,1.273197475e-313,0
2024/09/15_15:06:13,0.01129683372,1.273197475e-313,0
2024/09/15_15:06:13,0.01417214341,1.273197475e-313,0
2024/09/15_15:06:13,0.01728712496,1.273197475e-313,0
2024/09/15_15:06:13,0.02040894157,1.273197475e-313,0
2024/09/15_15:06:13,0.0233042492,1.273197475e-313,0
2024/09/15_15:06:13,0.02573919659,1.273197475e-313,0
2024/09/15_15:06:13,0.02747942524,1.273197475e-313,0
2024/09/15_15:06:13,0.02829006941,1.273197475e-313,0
2024/09/15_15:06:13,0.02794031209,1.273197475e-313,0
2024/09/15_15:06:13,0.02643982081,1.273197475e-313,0
2024/09/15_15:06:13,0.02415378337,1.273197475e-313,0
2024/09/15_15:06:13,0.02147554753,1.273197475e-313,0
2024/09/15_15:06:13,0.01879795379,1.273197475e-313,0
2024/09/15_15:06:13,0.01651333516,1.273197475e-313,0
2024/09/15_15:06:13,0.01501350987,1.273197475e-313,0
2024/09/15_15:06:13,0.01468978019,1.273197475e-313,0
2024/09/15_15:06:13,0.01593294071,1.273197475e-313,0
2024/09/15_15:06:13,0.01913638978,1.273197475e-313,0
2024/09/15_15:06:13,0.02469325912,1.273197475e-313,0
2024/09/15_15:06:13,0.0326250097,1.273197475e-313,0
2024/09/15_15:06:13,0.04239810062,1.273197475e-313,0
2024/09/15_15:06:13,0.05343278094,1.273197475e-313,0
2024/09/15_15:06:13,0.06514926152,1.273197475e-313,0
2024/09/15_15:06:13,0.07696771501,1.273197475e-313,0
2024/09/15_15:06:13,0.08830827589,1.273197475e-313,0
2024/09/15_15:06:13,0.09859104043,1.273197475e-313,0
2024/09/15_15:06:13,0.1072360667,1.273197475e-313,0
2024/09/15_15:06:13,0.1136633746,1.273197475e-313,0
2024/09/15_15:06:13,0.1172996087,1.273197475e-313,0
2024/09/15_15:06:13,0.1179711446,1.273197475e-313,0
2024/09/15_15:06:13,0.1161239623,1.273197475e-313,0
2024/09/15_15:06:13,0.1122573061,1.273197475e-313,0
2024/09/15_15:06:13,0.1068703821,1.273197475e-313,0
2024/09/15_15:06:13,0.1004623585,1.273197475e-313,0
2024/09/15_15:06:13,0.09353236476,1.273197475e-313,0
2024/09/15_15:06:13,0.08657949263,1.273197475e-313,0
2024/09/15_15:06:13,0.08010279545,1.273197475e-313,0
2024/09/15_15:06:13,0.0746012884,1.273197475e-313,0
2024/09/15_15:06:13,0.07057030854,1.273197475e-313,0
2024/09/15_15:06:13,0.06827189392,1.273197475e-313,0
2024/09/15_15:06:13,0.06759767327,1.273197475e-313,0
2024/09/15_15:06:13,0.06840632404,1.273197475e-313,0
2024/09/15_15:06:13,0.07055648544,1.273197475e-313,0
2024/09/15_15:06:13,0.07390675853,1.273197475e-313,0
2024/09/15_15:06:13,0.07831570615,1.273197475e-313,0
2024/09/15_15:06:13,0.08364185295,1.273197475e-313,0
2024/09/15_15:06:13,0.0897436854,1.273197475e-313,0
2024/09/15_15:06:13,0.09647965177,1.273197475e-313,0
2024/09/15_15:06:13,0.1037080121,1.273197475e-313,0
2024/09/15_15:06:13,0.1112766978,1.273197475e-313,0
2024/09/15_15:06:13,0.1190168633,1.273197475e-313,0
2024/09/15_15:06:13,0.1267580888,1.273197475e-313,0
2024/09/15_15:06:13,0.1343299164,1.273197475e-313,0
2024/09/15_15:06:13,0.1415618498,1.273197475e-313,0
2024/09/15_15:06:13,0.1482833546,1.273197475e-313,0
2024/09/15_15:06:13,0.1543238581,1.273197475e-313,0
2024/09/15_15:06:13,0.1595127497,1.273197475e-313,0
2024/09/15_15:06:13,0.1636793802,1.273197475e-313,0
2024/09/15_15:06:13,0.1666551652,1.273197475e-313,0
2024/09/15_15:06:13,0.1684261554,1.273197475e-313,0
2024/09/15_15:06:13,0.1692365417,1.273197475e-313,0
2024/09/15_15:06:13,0.169373786,1.273197475e-313,0
2024/09/15_15:06:13,0.1691141465,1.273197475e-313,0
2024/09/15_15:06:13,0.1687224349,1.273197475e-313,0
2024/09/15_15:06:13,0.1684634934,1.273197475e-313,0
2024/09/15_15:06:13,0.1686021944,1.273197475e-313,0
2024/09/15_15:06:13,0.1694034412,1.273197475e-313,0
2024/09/15_15:06:13,0.171132167,1.273197475e-313,0
2024/09/15_15:06:13,0.1740512841,1.273197475e-313,0
2024/09/15_15:06:13,0.1782614584,1.273197475e-313,0
2024/09/15_15:06:13,0.183586302,1.273197475e-313,0
2024/09/15_15:06:13,0.1898223635,1.273197475e-313,0
2024/09/15_15:06:13,0.1967662216,1.273197475e-313,0
2024/09/15_15:06:13,0.2042144855,1.273197475e-313,0
2024/09/15_15:06:13,0.2119637948,1.273197475e-313,0
2024/09/15_15:06:13,0.2198108198,1.273197475e-313,0
2024/09/15_15:06:13,0.2275522609,1.273197475e-313,0
2024/09/15_15:06:13,0.234984849,1.273197475e-313,0
2024/09/15_15:06:13,0.2419064789,1.273197475e-313,0
2024/09/15_15:06:13,0.2482116678,1.273197475e-313,0
2024/09/15_15:06:13,0.25396396,1.273197475e-313,0
2024/09/15_15:06:13,0.2592439807,1.273197475e-313,0
2024/09/15_15:06:13,0.2641323855,1.273197475e-313,0
2024/09/15_15:06:13,0.2687098604,1.273197475e-313,0
2024/09/15_15:06:13,0.2730571219,1.273197475e-313,0
2024/09/15_15:06:13,0.2772549168,1.273197475e-313,0
2024/09/15_15:06:13,0.2813840226,1.273197475e-313,0
2024/09/15_15:06:13,0.285525247,1.273197475e-313,0
2024/09/15_15:06:13,0.2897590552,1.273197475e-313,0
2024/09/15_15:06:13,0.2941315832,1.273197475e-313,0
2024/09/15_15:06:13,0.2986273947,1.273197475e-313,0
2024/09/15_15:06:13,0.3032246731,1.273197475e-313,0
2024/09/15_15:06:13,0.3079016322,1.273197475e-313,0
2024/09/15_15:06:13,0.3126365162,1.273197475e-313,0
2024/09/15_15:06:13,0.3174075998,1.273197475e-313,0
2024/09/15_15:06:13,0.3221931882,1.273197475e-313,0
2024/09/15_15:06:13,0.3269716427,1.273197475e-313,0
2024/09/15_15:06:13,0.3317214579,1.273197475e-313,0
2024/09/15_15:06:13,0.3364213295,1.273197475e-313,0
2024/09/15_15:06:13,0.3410644446,1.273197475e-313,0
2024/09/15_15:06:13,0.3456705906,1.273197475e-313,0
2024/09/15_15:06:13,0.3502624365,1.273197475e-313,0
2024/09/15_15:06:13,0.3548626821,1.273197475e-313,0
2024/09/15_15:06:13,0.3594940574,1.273197475e-313,0
2024/09/15_15:06:13,0.3641793228,1.273197475e-313,0
2024/09/15_15:06:13,0.3689412693,1.273197475e-313,0
2024/09/15_15:06:13,0.3738027183,1.273197475e-313,0
2024/09/15_15:06:13,0.3787865216,1.273197475e-313,0
2024/09/15_15:06:13,0.3839152684,1.273197475e-313,0
2024/09/15_15:06:13,0.3891797876,1.273197475e-313,0
2024/09/15_15:06:13,0.3945110727,1.273197475e-313,0
2024/09/15_15:06:13,0.3998335238,1.273197475e-313,0
2024/09/15_15:06:13,0.4050715718,1.273197475e-313,0
2024/09/15_15:06:13,0.410149678,1.273197475e-313,0
2024/09/15_15:06:13,0.4149923339,1.273197475e-313,0
2024/09/15_15:06:13,0.4195240616,1.273197475e-313,0
2024/09/15_15:06:13,0.4236694138,1.273197475e-313,0
2024/09/15_15:06:13,0.4273529734,1.273197475e-313,0
2024/09/15_15:06:13,0.4304998963,1.273197475e-313,0
2024/09/15_15:06:13,0.4330995605,1.273197475e-313,0
2024/09/15_15:06:13,0.4352652766,1.273197475e-313,0
2024/09/15_15:06:13,0.4371245142,1.273197475e-313,0
2024/09/15_15:06:13,0.4388047735,1.273197475e-313,0
2024/09/15_15:06:13,0.4404335849,1.273197475e-313,0
2024/09/15_15:06:13,0.4421385094,1.273197475e-313,0
2024/09/15_15:06:13,0.4440471386,1.273197475e-313,0
2024/09/15_15:06:13,0.4462870942,1.273197475e-313,0
2024/09/15_15:06:13,0.4489860286,1.273197475e-313,0
2024/09/15_15:06:13,0.4522708737,1.273197475e-313,0
2024/09/15_15:06:13,0.4561713378,1.273197475e-313,0
2024/09/15_15:06:13,0.4605247355,1.273197475e-313,0
2024/09/15_15:06:13,0.4651458011,1.273197475e-313,0
2024/09/15_15:06:13,0.4698492991,1.273197475e-313,0
2024/09/15_15:06:13,0.4744500246,1.273197475e-313,0
2024/09/15_15:06:13,0.4787628031,1.273197475e-313,0
2024/09/15_15:06:13,0.4826024905,1.273197475e-313,0
2024/09/15_15:06:13,0.4857839733,1.273197475e-313,0
2024/09/15_15:06:13,0.4881221682,1.273197475e-313,0
2024/09/15_15:06:13,0.489432882,1.273197475e-313,0
2024/09/15_15:06:13,0.4896542604,1.273197475e-313,0
2024/09/15_15:06:13,0.4889725659,1.273197475e-313,0
2024/09/15_15:06:13,0.4876041236,1.273197475e-313,0
2024/09/15_15:06:13,0.4857652893,1.273197475e-313,0
2024/09/15_15:06:13,0.483672449,1.273197475e-313,0
2024/09/15_15:06:13,0.4815420194,1.273197475e-313,0
2024/09/15_15:06:13,0.4795904475,1.273197475e-313,0
2024/09/15_15:06:13,0.4780342107,1.273197475e-313,0
2024/09/15_15:06:13,0.4770898169,1.273197475e-313,0
2024/09/15_15:06:13,0.4769729896,1.273197475e-313,0
2024/09/15_15:06:13,0.4777715577,1.273197475e-313,0
2024/09/15_15:06:13,0.4793073484,1.273197475e-313,0
2024/09/15_15:06:13,0.4813690484,1.273197475e-313,0
2024/09/15_15:06:13,0.4837453745,1.273197475e-313,0
2024/09/15_15:06:13,0.4862250744,1.273197475e-313,0
2024/09/15_15:06:13,0.4885969258,1.273197475e-313,0
2024/09/15_15:06:13,0.4906497371,1.273197475e-313,0
2024/09/15_15:06:13,0.4921723469,1.273197475e-313,0
2024/09/15_15:06:13,0.4929536246,1.273197475e-313,0
2024/09/15_15:06:13,0.492783048,1.273197475e-313,0
2024/09/15_15:06:13,0.4915507281,1.273197475e-313,0
2024/09/15_15:06:13,0.4893601159,1.273197475e-313,0
2024/09/15_15:06:13,0.4863355608,1.273197475e-313,0
2024/09/15_15:06:13,0.4826122095,1.273197475e-313,0
2024/09/15_15:06:13,0.4783275619,1.273197475e-313,0
2024/09/15_15:06:13,0.4736190729,1.273197475e-313,0
2024/09/15_15:06:13,0.4686241523,1.273197475e-313,0
2024/09/15_15:06:13,0.4634801649,1.273197475e-313,0
2024/09/15_15:06:13,0.4583244307,1.273197475e-313,0
2024/09/15_15:06:13,0.4532940349,1.273197475e-313,0
2024/09/15_15:06:13,0.4484892594,1.273197475e-313,0
2024/09/15_15:06:13,0.4439299667,1.273197475e-313,0
2024/09/15_15:06:13,0.4396253483,1.273197475e-313,0
2024/09/15_15:06:13,0.4355845509,1.273197475e-313,0
2024/09/15_15:06:13,0.4318166761,1.273197475e-313,0
2024/09/15_15:06:13,0.4283307805,1.273197475e-313,0
2024/09/15_15:06:13,0.4251358758,1.273197475e-313,0
2024/09/15_15:06:13,0.4222409286,1.273197475e-313,0
2024/09/15_15:06:13,0.4196548606,1.273197475e-313,0
2024/09/15_15:06:13,0.417386312,1.273197475e-313,0
2024/09/15_15:06:13,0.4153925981,1.273197475e-313,0
2024/09/15_15:06:13,0.4135159966,1.273197475e-313,0
2024/09/15_15:06:13,0.4115830912,1.273197475e-313,0
2024/09/15_15:06:13,0.4094204201,1.273197475e-313,0
2024/09/15_15:06:13,0.4068544768,1.273197475e-313,0
2024/09/15_15:06:13,0.4037117099,1.273197475e-313,0
2024/09/15_15:06:13,0.3998185227,1.273197475e-313,0
2024/09/15_15:06:13,0.3950012738,1.273197475e-313,0
2024/09/15_15:06:13,0.3890862766,1.273197475e-313,0
2024/09/15_15:06:13,0.3819003752,1.273197475e-313,0
2024/09/15_15:06:13,0.3734109785,1.273197475e-313,0
2024/09/15_15:06:13,0.3639088466,1.273197475e-313,0
2024/09/15_15:06:13,0.3537299919,1.273197475e-313,0
2024/09/15_15:06:13,0.3432103816,1.273197475e-313,0
2024/09/15_15:06:13,0.3326859383,1.273197475e-313,0
2024/09/15_15:06:13,0.3224925394,1.273197475e-313,0
2024/09/15_15:06:13,0.3129660174,1.273197475e-313,0
2024/09/15_15:06:13,0.3044421596,1.273197475e-313,0
2024/09/15_15:06:13,0.2972566904,1.273197475e-313,0
2024/09/15_15:06:13,0.2917445779,1.273197475e-313,0
2024/09/15_15:06:13,0.2880636636,1.273197475e-313,0
2024/09/15_15:06:13,0.2859540236,1.273197475e-313,0
2024/09/15_15:06:13,0.2850954792,1.273197475e-313,0
2024/09/15_15:06:13,0.2851678069,1.273197475e-313,0
2024/09/15_15:06:13,0.2858507381,1.273197475e-313,0
2024/09/15_15:06:13,0.2868239593,1.273197475e-313,0
2024/09/15_15:06:13,0.287767112,1.273197475e-313,0
2024/09/15_15:06:13,0.2883597926,1.273197475e-313,0
2024/09/15_15:06:13,0.2882815526,1.273197475e-313,0
2024/09/15_15:06:13,0.2872122829,1.273197475e-313,0
2024/09/15_15:06:13,0.2849534059,1.273197475e-313,0
2024/09/15_15:06:13,0.2816005322,1.273197475e-313,0
2024/09/15_15:06:13,0.2772928634,1.273197475e-313,0
2024/09/15_15:06:13,0.2721695558,1.273197475e-313,0
2024/09/15_15:06:13,0.2663697208,1.273197475e-313,0
2024/09/15_15:06:13,0.2600324249,1.273197475e-313,0
2024/09/15_15:06:13,0.2532966895,1.273197475e-313,0
2024/09/15_15:06:13,0.246301491,1.273197475e-313,0
2024/09/15_15:06:13,0.2391857611,1.273197475e-313,0
2024/09/15_15:06:13,0.2320883446,1.273197475e-313,0
2024/09/15_15:06:13,0.2251290534,1.273197475e-313,0
2024/09/15_15:06:13,0.2183804748,1.273197475e-313,0
2024/09/15_15:06:13,0.211907953,1.273197475e-313,0
2024/09/15_15:06:13,0.2057767871,1.273197475e-313,0
2024/09/15_15:06:13,0.2000522314,1.273197475e-313,0
2024/09/15_15:06:13,0.1947994952,1.273197475e-313,0
2024/09/15_15:06:13,0.1900837426,1.273197475e-313,0
2024/09/15_15:06:13,0.1859700929,1.273197475e-313,0
2024/09/15_15:06:13,0.1825236203,1.273197475e-313,0
2024/09/15_15:06:13,0.1798092129,1.273197475e-313,0
2024/09/15_15:06:13,0.1778319693,1.273197475e-313,0
2024/09/15_15:06:13,0.1764447345,1.273197475e-313,0
2024/09/15_15:06:13,0.1754764227,1.273197475e-313,0
2024/09/15_15:06:13,0.1747559031,1.273197475e-313,0
2024/09/15_15:06:13,0.174112,1.273197475e-313,0
2024/09/15_15:06:13,0.1733734926,1.273197475e-313,0
2024/09/15_15:06:13,0.1723691151,1.273197475e-313,0
2024/09/15_15:06:13,0.1709275569,1.273197475e-313,0
2024/09/15_15:06:13,0.1688774622,1.273197475e-313,0
2024/09/15_15:06:13,0.1660475826,1.273197475e-313,0
2024/09/15_15:06:13,0.1623422271,1.273197475e-313,0
2024/09/15_15:06:13,0.1578633087,1.273197475e-313,0
2024/09/15_15:06:13,0.1527445948,1.273197475e-313,0
2024/09/15_15:06:13,0.1471198078,1.273197475e-313,0
2024/09/15_15:06:13,0.141122625,1.273197475e-313,0
2024/09/15_15:06:13,0.1348866789,1.273197475e-313,0
2024/09/15_15:06:13,0.128545557,1.273197475e-313,0
2024/09/15_15:06:13,0.1222328017,1.273197475e-313,0
2024/09/15_15:06:13,0.1160819103,1.273197475e-313,0
2024/09/15_15:06:13,0.1102262842,1.273197475e-313,0
2024/09/15_15:06:13,0.1047691412,1.273197475e-313,0
2024/09/15_15:06:13,0.09973279274,1.273197475e-313,0
2024/09/15_15:06:13,0.09512608477,1.273197475e-313,0
2024/09/15_15:06:13,0.09095781835,1.273197475e-313,0
2024/09/15_15:06:13,0.08723674955,1.273197475e-313,0
2024/09/15_15:06:13,0.08397158942,1.273197475e-313,0
2024/09/15_15:06:13,0.08117100405,1.273197475e-313,0
2024/09/15_15:06:13,0.0788436145,1.273197475e-313,0
2024/09/15_15:06:13,0.07699896505,1.273197475e-313,0
2024/09/15_15:06:13,0.07564703079,1.273197475e-313,0
2024/09/15_15:06:13,0.07474933728,1.273197475e-313,0
2024/09/15_15:06:13,0.07414159698,1.273197475e-313,0
2024/09/15_15:06:13,0.07363807851,1.273197475e-313,0
2024/09/15_15:06:13,0.0730530612,1.273197475e-313,0
2024/09/15_15:06:13,0.07220083515,1.273197475e-313,0
2024/09/15_15:06:13,0.07089570119,1.273197475e-313,0
2024/09/15_15:06:13,0.06895197088,1.273197475e-313,0
2024/09/15_15:06:13,0.06618396654,1.273197475e-313,0
2024/09/15_15:06:13,0.06240602121,1.273197475e-313,0
2024/09/15_15:06:13,0.05743263827,1.273197475e-313,0
2024/09/15_15:06:13,0.0512161841,1.273197475e-313,0
2024/09/15_15:06:13,0.04409869898,1.273197475e-313,0
2024/09/15_15:06:13,0.03649059889,1.273197475e-313,0
2024/09/15_15:06:13,0.02880231054,1.273197475e-313,0
2024/09/15_15:06:13,0.02144427139,1.273197475e-313,0
2024/09/15_15:06:13,0.01482692962,1.273197475e-313,0
2024/09/15_15:06:13,0.009360744189,1.273197475e-313,0
2024/09/15_15:06:13,0.005456184759,1.273197475e-313,0
2024/09/15_15:06:13,0.003523731752,1.273197475e-313,0
2024/09/15_15:06:13,0.003973668963,1.273197475e-313,0
2024/09/15_15:06:13,0.006993812683,1.273197475e-313,0
2024/09/15_15:06:13,0.01212640288,1.273197475e-313,0
2024/09/15_15:06:13,0.01879725248,1.273197475e-313,0
2024/09/15_15:06:13,0.02643218514,1.273197475e-313,0
2024/09/15_15:06:13,0.03445703528,1.273197475e-313,0
2024/09/15_15:06:13,0.04229764802,1.273197475e-313,0
2024/09/15_15:06:13,0.04937987927,1.273197475e-313,0
2024/09/15_15:06:13,0.05512959564,1.273197475e-313,0
2024/09/15_15:06:13,0.05897267451,1.273197475e-313,0
2024/09/15_15:06:13,0.06033518441,1.273197475e-313,0
2024/09/15_15:06:13,0.05888863364,1.273197475e-313,0
2024/09/15_15:06:13,0.05503572574,1.273197475e-313,0
2024/09/15_15:06:13,0.04931473194,1.273197475e-313,0
2024/09/15_15:06:13,0.04226393418,1.273197475e-313,0
2024/09/15_15:06:13,0.03442162514,1.273197475e-313,0
2024/09/15_15:06:13,0.02632610825,1.273197475e-313,0
2024/09/15_15:06:13,0.01851569767,1.273197475e-313,0
2024/09/15_15:06:13,0.01152871833,1.273197475e-313,0
2024/09/15_15:06:13,0.005903505858,1.273197475e-313,0
2024/09/15_15:06:13,0.002178338158,1.273197475e-313,0
2024/09/15_15:06:13,0.0006870673752,1.273197475e-313,0
2024/09/15_15:06:13,0.001137659294,1.273197475e-313,0
2024/09/15_15:06:13,0.003118815397,1.273197475e-313,0
2024/09/15_15:06:13,0.006219247905,1.273197475e-313,0
2024/09/15_15:06:13,0.01002767978,1.273197475e-313,0
2024/09/15_15:06:13,0.01413284473,1.273197475e-313,0
2024/09/15_15:06:13,0.01812348719,1.273197475e-313,0
2024/09/15_15:06:13,0.02158836235,1.273197475e-313,0
2024/09/15_15:06:13,0.02411623614,1.273197475e-313,0
2024/09/15_15:06:13,0.02529594964,1.273197475e-313,0
2024/09/15_15:06:13,0.02486878702,1.273197475e-313,0
2024/09/15_15:06:13,0.02305485765,1.273197475e-313,0
2024/09/15_15:06:13,0.02016805237,1.273197475e-313,0
2024/09/15_15:06:13,0.01652227278,1.273197475e-313,0
2024/09/15_15:06:13,0.01243143121,1.273197475e-313,0
2024/09/15_15:06:13,0.008209450737,1.273197475e-313,0
2024/09/15_15:06:13,0.00417026517,1.273197475e-313,0
2024/09/15_15:06:13,0.00062781907,1.273197475e-313,0
2024/09/15_15:06:13,-0.002103932267,1.273197475e-313,0
2024/09/15_15:06:13,-0.003711059996,1.273197475e-313,0
2024/09/15_15:06:13,-0.004001894187,1.273197475e-313,0
2024/09/15_15:06:13,-0.003179175726,1.273197475e-313,0
2024/09/15_15:06:13,-0.001525015946,1.273197475e-313,0
2024/09/15_15:06:13,0.0006784845584,1.273197475e-313,0
2024/09/15_15:06:13,0.003149235936,1.273197475e-313,0
2024/09/15_15:06:13,0.005605159075,1.273197475e-313,0
2024/09/15_15:06:13,0.007764185606,1.273197475e-313,0
2024/09/15_15:06:13,0.009344257899,1.273197475e-313,0
2024/09/15_15:06:13,0.01006332907,1.273197475e-313,0
2024/09/15_15:06:13,0.009639386739,1.273197475e-313,0
2024/09/15_15:06:13,0.007904251508,1.273197475e-313,0
2024/09/15_15:06:13,0.005066854592,1.273197475e-313,0
2024/09/15_15:06:13,0.001414128831,1.273197475e-313,0
2024/09/15_15:06:13,-0.002766982192,1.273197475e-313,0
2024/09/15_15:06:13,-0.007189524155,1.273197475e-313,0
2024/09/15_15:06:13,-0.01156653199,1.273197475e-313,0
2024/09/15_15:06:13,-0.0156110299,1.273197475e-313,0
2024/09/15_15:06:13,-0.01903603134,1.273197475e-313,0
2024/09/15_15:06:13,-0.02155453901,1.273197475e-313,0
2024/09/15_15:06:13,-0.02287955965,1.273197475e-313,0
2024/09/15_15:06:13,-0.0228333738,1.273197475e-313,0
2024/09/15_15:06:13,-0.02161013631,1.273197475e-313,0
2024/09/15_15:06:13,-0.01948302337,1.273197475e-313,0
2024/09/15_15:06:13,-0.01672520044,1.273197475e-313,0
2024/09/15_15:06:13,-0.01360982224,1.273197475e-313,0
2024/09/15_15:06:13,-0.01041003275,1.273197475e-313,0
2024/09/15_15:06:13,-0.007398965195,1.273197475e-313,0
2024/09/15_15:06:13,-0.004849742075,1.273197475e-313,0
2024/09/15_15:06:13,-0.003035475144,1.273197475e-313,0
2024/09/15_15:06:13,-0.002229257617,1.273197475e-313,0
2024/09/15_15:06:13,-0.002606836822,1.273197475e-313,0
2024/09/15_15:06:13,-0.004003721523,1.273197475e-313,0
2024/09/15_15:06:13,-0.006181115964,1.273197475e-313,0
2024/09/15_15:06:13,-0.008900213649,1.273197475e-313,0
2024/09/15_15:06:13,-0.01192219734,1.273197475e-313,0
2024/09/15_15:06:13,-0.01500823906,1.273197475e-313,0
2024/09/15_15:06:13,-0.01791950008,1.273197475e-313,0
2024/09/15_15:06:13,-0.02041713095,1.273197475e-313,0
2024/09/15_15:06:13,-0.02226227146,1.273197475e-313,0
2024/09/15_15:06:13,-0.02321605422,1.273197475e-313,0
2024/09/15_15:06:13,-0.02312366927,1.273197475e-313,0
2024/09/15_15:06:13,-0.02213215814,1.273197475e-313,0
2024/09/15_15:06:13,-0.02045627876,1.273197475e-313,0
2024/09/15_15:06:13,-0.0183107783,1.273197475e-313,0
2024/09/15_15:06:13,-0.01591039318,1.273197475e-313,0
2024/09/15_15:06:13,-0.01346984912,1.273197475e-313,0
2024/09/15_15:06:13,-0.01120386106,1.273197475e-313,0
2024/09/15_15:06:13,-0.009327133211,1.273197475e-313,0
2024/09/15_15:06:13,-0.008054359051,1.273197475e-313,0
2024/09/15_15:06:13,-0.007600220057,1.273197475e-313,0
2024/09/15_15:06:13,-0.008110703361,1.273197475e-313,0
2024/09/15_15:06:13,-0.009478430369,1.273197475e-313,0
2024/09/15_15:06:13,-0.0115376079,1.273197475e-313,0
2024/09/15_15:06:13,-0.01412243203,1.273197475e-313,0
2024/09/15_15:06:13,-0.0170670881,1.273197475e-313,0
2024/09/15_15:06:13,-0.0202057507,1.273197475e-313,0
2024/09/15_15:06:13,-0.02337258369,1.273197475e-313,0
2024/09/15_15:06:13,-0.02640174018,1.273197475e-313,0
2024/09/15_15:06:13,-0.02912736255,1.273197475e-313,0
2024/09/15_15:06:13,-0.03138358266,1.273197475e-313,0
2024/09/15_15:06:13,-0.03304889251,1.273197475e-313,0
2024/09/15_15:06:13,-0.03416992119,1.273197475e-313,0
2024/09/15_15:06:13,-0.03483311165,1.273197475e-313,0
2024/09/15_15:06:13,-0.03512489612,1.273197475e-313,0
2024/09/15_15:06:13,-0.03513169608,1.273197475e-313,0
2024/09/15_15:06:13,-0.03493992226,1.273197475e-313,0
2024/09/15_15:06:13,-0.03463574659,1.273197475e-313,0
2024/09/15_15:06:13,-0.03430540759,1.273197475e-313,0
2024/09/15_15:06:13,-0.03403569708,1.273197475e-313,0
2024/09/15_15:06:13,-0.03391340542,1.273197475e-313,0
2024/09/15_15:06:13,-0.03399913263,1.273197475e-313,0
2024/09/15_15:06:13,-0.03425153861,1.273197475e-313,0
2024/09/15_15:06:13,-0.03460447049,1.273197475e-313,0
2024/09/15_15:06:13,-0.03499176572,1.273197475e-313,0
2024/09/15_15:06:13,-0.03534725205,1.273197475e-313,0
2024/09/15_15:06:13,-0.03560474755,1.273197475e-313,0
2024/09/15_15:06:13,-0.0356980606,1.273197475e-313,0
2024/09/15_15:06:13,-0.0355609899,1.273197475e-313,0
2024/09/15_15:06:13,-0.03512732446,1.273197475e-313,0
2024/09/15_15:06:13,-0.03433084358,1.273197475e-313,0
2024/09/15_15:06:13,-0.03312965694,1.273197475e-313,0
2024/09/15_15:06:13,-0.03157922468,1.273197475e-313,0
2024/09/15_15:06:13,-0.02975933728,1.273197475e-313,0
2024/09/15_15:06:13,-0.02774977555,1.273197475e-313,0
2024/09/15_15:06:13,-0.02563031061,1.273197475e-313,0
2024/09/15_15:06:13,-0.02348070387,1.273197475e-313,0
2024/09/15_15:06:13,-0.02138070709,1.273197475e-313,0
2024/09/15_15:06:13,-0.0194100623,1.273197475e-313,0
2024/09/15_15:06:13,-0.01764850188,1.273197475e-313,0
2024/09/15_15:06:13,-0.01617574849,1.273197475e-313,0
2024/09/15_15:06:13,-0.01505321047,1.273197475e-313,0
2024/09/15_15:06:13,-0.01426706186,1.273197475e-313,0
2024/09/15_15:06:13,-0.0137841457,1.273197475e-313,0
2024/09/15_15:06:13,-0.01357129537,1.273197475e-313,0
2024/09/15_15:06:13,-0.0135953345,1.273197475e-313,0
2024/09/15_15:06:13,-0.01382307709,1.273197475e-313,0
2024/09/15_15:06:13,-0.01422132741,1.273197475e-313,0
2024/09/15_15:06:13,-0.01475688006,1.273197475e-313,0
2024/09/15_15:06:13,-0.01539651997,1.273197475e-313,0
2024/09/15_15:06:13,-0.01610702234,1.273197475e-313,0
2024/09/15_15:06:13,-0.01685460222,1.273197475e-313,0
2024/09/15_15:06:13,-0.01760314064,1.273197475e-313,0
2024/09/15_15:06:13,-0.01831589564,1.273197475e-313,0
2024/09/15_15:06:13,-0.01895611777,1.273197475e-313,0
2024/09/15_15:06:13,-0.01948705146,1.273197475e-313,0
2024/09/15_15:06:13,-0.01987193171,1.273197475e-313,0
2024/09/15_15:06:13,-0.02007398387,1.273197475e-313,0
2024/09/15_15:06:13,-0.02005642358,1.273197475e-313,0
2024/09/15_15:06:13,-0.0197824568,1.273197475e-313,0
2024/09/15_15:06:13,-0.01921527981,1.273197475e-313,0
2024/09/15_15:06:13,-0.01833035219,1.273197475e-313,0
2024/09/15_15:06:13,-0.01715636398,1.273197475e-313,0
2024/09/15_15:06:13,-0.0157364287,1.273197475e-313,0
2024/09/15_15:06:13,-0.01411365048,1.273197475e-313,0
2024/09/15_15:06:13,-0.01233112372,1.273197475e-313,0
2024/09/15_15:06:13,-0.01043193317,1.273197475e-313,0
2024/09/15_15:06:13,-0.008459153877,1.273197475e-313,0
2024/09/15_15:06:13,-0.006455851198,1.273197475e-313,0
2024/09/15_15:06:13,-0.004465080807,1.273197475e-313,0
2024/09/15_15:06:13,-0.002529888689,1.273197475e-313,0
2024/09/15_15:06:13,-0.0006914623256,1.273197475e-313,0
2024/09/15_15:06:13,0.001017260712,1.273197475e-313,0
2024/09/15_15:06:13,0.002565647435,1.273197475e-313,0
2024/09/15_15:06:13,0.003923074638,1.273197475e-313,0
2024/09/15_15:06:13,0.005058928801,1.273197475e-313,0
2024/09/15_15:06:13,0.005942606095,1.273197475e-313,0
2024/09/15_15:06:13,0.006543512378,1.273197475e-313,0
2024/09/15_15:06:13,0.006831063195,1.273197475e-313,0
2024/09/15_15:06:13,0.006774683779,1.273197475e-313,0
2024/09/15_15:06:13,0.006343809051,1.273197475e-313,0
2024/09/15_15:06:13,0.005522881538,1.273197475e-313,0
