ECG_Data
1.0730540947480476
1.0684779754504437
1.0579535735435412
1.0414375662159157
1.0190140582039973
0.9911221315319967
0.9582049225263549
0.9207064869422628
0.879071799963659
0.8337467562032318
0.7851781697024169
0.7338128926173422
0.6800950746956193
0.6244688548511962
0.5673792914261073
0.509272362191136
0.45059496434581325
0.39179491451842036
0.33332094876598606
0.27562272257428927
0.21915081085785604
0.16433957440837207
0.11152005162816284
0.06079763109226322
0.01220888144432472
-0.03422289958060007
-0.07848992782425769
-0.12059993270519356
-0.16057615721875243
-0.19845735793707794
-0.23429780500911274
-0.26811500954212464
-0.2997152384168792
-0.3288587988821269
-0.3553215106430338
-0.37889470698156485
-0.39938523475648424
-0.41661545440335473
-0.4304232399345388
-0.4406619789391975
-0.447200572583291
-0.4499759665064634
-0.44917475199141493
-0.4450642393474867
-0.43792725520519354
-0.4280621397718492
-0.4157827468315668
-0.40141844374525815
-0.38531411145063427
-0.3677760295355297
-0.3490329320681573
-0.3293748876343454
-0.3092002909308315
-0.2889321260509086
-0.26898467569425005
-0.24976351849984238
-0.23166552904598497
-0.21507887785029017
-0.20038303136968297
-0.18794875200040145
-0.17813809807799658
-0.17119326067432153
-0.16682464915900427
-0.1645802537898631
-0.1639993400222069
-0.16461246925065753
-0.16594149880914977
-0.1674995819709312
-0.16879116794856233
-0.16931200189391662
-0.16854912489818014
-0.16610120221513724
-0.16214000355861535
-0.1570042051720466
-0.15102381592934983
-0.144520140643757
-0.13780578006781277
-0.13118463089337468
-0.12495188575161362
-0.11940438074238509
-0.11496150331147079
-0.11193634695350019
-0.11024507934814075
-0.1096892579084418
-0.11007104636526903
-0.11119324982669372
-0.11285931477799194
-0.1148733290816446
-0.11704002197733814
-0.11916476408196358
-0.12105356738961709
-0.12253890393209715
-0.12358572296382841
-0.12420158554836831
-0.12439471186268514
-0.12417396346095208
-0.12354884327454742
-0.12252949561205445
-0.12112670615926147
-0.11935190197916193
-0.11721715151195411
-0.11474630964683034
-0.1120223279198944
-0.10914778734698666
-0.10622588810606122
-0.10336047175227736
-0.10065602121799924
-0.09821766081279598
-0.0961511562234421
-0.09456291451391677
-0.09355998412540434
-0.0932130827005058
-0.09339414389390435
-0.093908803725891
-0.09455810947547123
-0.09513313081176829
-0.09543375060837461
-0.0952603558573005
-0.09441337606365778
-0.09269328324566074
-0.08990059193462596
-0.08589985252187697
-0.08091046778349226
-0.07527415540660551
-0.0693327895568422
-0.06342828691292995
-0.05790260666669836
-0.05309775052307929
-0.04935576270010685
-0.047018729928917105
-0.04642878145374849
-0.04783919680440738
-0.05099663437065608
-0.05546855121400242
-0.06082223941024194
-0.06662503354827269
-0.07244431073009461
-0.07784749057080978
-0.08240203519862266
-0.08567544925483955
-0.08723527989386928
-0.08672673073685236
-0.08424986196323955
-0.08006993713089766
-0.07445249566128204
-0.06766311948895029
-0.05996743306156202
-0.051631103339879206
-0.04291983979776581
-0.03409939442218812
-0.0254355617132144
-0.01716500474883703
-0.009348647435588067
-0.001981939483449529
0.004939738174225411
0.01142096209098109
0.01746626630725988
0.023080142350401813
0.028267039234645224
0.03303136346112588
0.037377479017877434
0.04131564090687758
0.04489282589245039
0.04817003082505837
0.051208238388732896
0.054068388754402855
0.056815845637953305
0.05952476153274101
0.06225444613063078
0.06506306166652882
0.06800879889653995
0.07114751967912077
0.07452009204755691
0.07816151605742
0.08210680634107545
0.08639100605208662
0.09104918686521576
0.09611644897642221
0.10162792110286428
0.10761876048289765
0.11412415287607644
0.12116133707774858
0.12862975834128795
0.13638143832154465
0.1442682968630952
0.15214228233171473
0.15985537161437605
0.1672595701192508
0.17420691177570774
0.18054945903431446
0.18613930286683641
0.19085377638701875
0.19474025608594633
0.1979163966316796
0.20050010330528345
0.2026093099090216
0.20436197876635545
0.20587610072194445
0.20726969514164645
0.20866080991251662
0.21016752144280954
0.211899678778137
0.21390988182409118
0.2162263881861367
0.21887702820858235
0.22188957531041953
0.22529186310822283
0.22911176324881832
0.23337717590205792
0.23811602975899165
0.2433562820318676
0.24911205223939634
0.2552984923788535
0.26178774018392015
0.2684517857571913
0.27516264772246035
0.2817923732247187
0.2882130379301561
0.29429674602615996
0.29991563022131595
0.30494185174540817
0.3092681436125932
0.31293821959954743
0.3160631382441235
0.31875429689513857
0.3211231214226077
0.32328106621774455
0.3253396141929599
0.32741027678186396
0.32960459393926383
0.33203413414116517
0.3347981752857877
0.33790284110119495
0.3413116680176085
0.3449880010412746
0.34889521369963794
0.3529967080413409
0.3572559146362243
0.36163629257532653
0.3661013294708846
0.37061454145633344
0.37513200137242164
0.37955162056391106
0.38374404926761035
0.38757980938521036
0.39092945133959944
0.3936635540748644
0.39565272505628996
0.39676760027035846
0.3968788442247513
0.39585714994834753
0.39360223499978236
0.3902463925303184
0.3860337675945865
0.38120890925011075
0.37599981608582606
0.3706460533820367
0.3653981956131116
0.36050677369370393
0.35622227497875103
0.352795143263474
0.3504398716425003
0.3490742954136834
0.3484699730258684
0.3483973917208688
0.3486269951807815
0.3489291835279882
0.3490743133251543
0.3488326975752296
0.34797460572144756
0.3462702636473268
0.3435166722815544
0.3397390220155557
0.3350778119347426
0.3296743881790133
0.32367005332855026
0.3172060664038196
0.31042364286557245
0.3034639546148433
0.2964681299929513
0.28957725378149923
0.2829252105087412
0.27658308114542585
0.2705893879571844
0.26498233489073225
0.2598000823330689
0.25508074711147793
0.25086240249352726
0.24718307818706914
0.24408076034023923
0.24159339154145779
0.2397458988853353
0.23844591801394027
0.23753877860565656
0.23686919298360992
0.23628182991121013
0.23562131459215124
0.23473222867041107
0.23345911023025218
0.23164645379622067
0.22913871033314737
0.22579660426044623
0.22163286319017853
0.2167429234644026
0.2112231426583323
0.2051703779981062
0.19868157895280786
0.1918536514318044
0.18478345778474772
0.1775678168015738
0.17030350371250216
0.16308320310548696
0.1559606670945627
0.14896791342085394
0.14213668078405775
0.13549866432415536
0.12908551562141227
0.12292884269637817
0.11706021000988656
0.11151113846305531
0.10631310539728656
0.10149162779906526
0.09701353372404684
0.09281208819453013
0.08882011943535183
0.08497041211163316
0.08119570732877886
0.07742870263247825
0.07360205200870461
0.06964836588371551
0.06550021112405247
0.061094395328007964
0.05641149633713542
0.05145770835555999
0.04623950646965396
0.040763322206073524
0.035035543531759854
0.02906251485393686
0.022850537020114105
0.016405867318084126
0.009734719475924414
0.002848286739077919
-0.004189264452532013
-0.01128199803042293
-0.018333589037304615
-0.025247756075603776
-0.031928261307461764
-0.03827891045473676
-0.044203552799002024
-0.04960608118154722
-0.05439043200337741
-0.058471284194238735
-0.06187994148684569
-0.06471942200182333
-0.06709383239303403
-0.06910732287405683
-0.07086408721818677
-0.07246836275843391
-0.07402443038752471
-0.07563661455790169
-0.07740928328172317
-0.07943977741936967
-0.08174591473107523
-0.08429544521655978
-0.08705538047113386
-0.08999277564982382
-0.0930747294673718
-0.09626837948465192
-0.09953988438765649
-0.1028562130636343
-0.10618534927886061
-0.10949596810315604
-0.11276490114316669
-0.11597423827532588
-0.11910614589569515
-0.12214277909369044
-0.12506628165208203
-0.12785878604699474
-0.13050241344790775
-0.13297927371765456
-0.13527146541242313
-0.137362485247268
-0.13925275117304786
-0.1409538597800853
-0.1424775951613421
-0.1438357301031346
-0.14504002608513344
-0.1461022332803638
-0.14703409055520494
-0.14784732546939078
-0.14855365427600953
-0.14916577963739974
-0.1497087838853523
-0.1502161253829532
-0.1507214097501427
-0.15125823130021537
-0.15186017303982025
-0.15256080666896082
-0.1533936925809948
-0.15439237986263438
-0.15559040629394624
-0.15701910041147976
-0.15868154966523373
-0.16056125908420332
-0.16264132936576922
-0.16490495165417884
-0.1673357128010847
-0.1699172901050065
-0.17263334955781828
-0.1754675530675039
-0.17840359308372322
-0.18142344642135066
-0.18448623191673574
-0.1875348353075384
-0.19051178554291573
-0.19335960026537918
-0.1960207858107951
-0.19843783720838376
-0.20055323818072004
-0.20230946114373283
-0.2036489672067061
-0.20451826912211551
-0.20491974583412859
-0.20489639614830563
-0.20449212387278753
-0.20375082150906954
-0.20271637025200134
-0.201432639989787
-0.1999434893039849
-0.19829276546950791
-0.19652430445462318
-0.19468115886242138
-0.19279537563199167
-0.190890803489392
-0.18899108463199077
-0.18711984995051073
-0.185300719029029
-0.1835573001449774
-0.18191319026914166
-0.1803919750656624
-0.1790172288920342
-0.17781049833224705
-0.17676357278893978
-0.17584554808776823
-0.17502493763123886
-0.17427024351521292
-0.17354995652890592
-0.1728325561548876
-0.17208651056908242
-0.17128027664076884
-0.17038229993257997
-0.1693633315939319
-0.16822953221614262
-0.16701470845521338
-0.16575339002519923
-0.16448009533350966
-0.16322933148090832
-0.16203559426151348
-0.16093336816279782
-0.15995712636558845
-0.15914133074406656
-0.15851776688628483
-0.15807596459035386
-0.1577716668659886
-0.15755966086116324
-0.15739472241720637
-0.15723161606880087
-0.1570250950439842
-0.15672990126414812
-0.15630076534403883
-0.1556909000970434
-0.15485696092571508
-0.15381478518643737
-0.1526271050920457
-0.1513580236486458
-0.15007163484055314
-0.14883202363029255
-0.14770326595859848
-0.14674942874441463
-0.14603456988489455
-0.14562273825540084
-0.14557294883132552
-0.14585844226616718
-0.14638056149875223
-0.14703841801862177
-0.14773111429352684
-0.14835774376942737
-0.14881739087049295
-0.14900913099910307
-0.14883203053584618
-0.1481851468395205
-0.14697389485301487
-0.14521652968727378
-0.14302814513053844
-0.1405269687810521
-0.13783121921526711
-0.13505910598784537
-0.13232882963165843
-0.12975858165778714
-0.12746654455552206
-0.12557089179236294
-0.12418343594366964
-0.12329899215234458
-0.12280957289302771
-0.1226036835998196
-0.12256982068502989
-0.12259645764761137
-0.12257200339845828
-0.12238484393510815
-0.12192335623330755
-0.12107590824701286
-0.11973675497415079
-0.11791304689112508
-0.11571349402938277
-0.11325041831996599
-0.11063613267212588
-0.10798294097332356
-0.10540313808922948
-0.10300900986372366
-0.10091283311889528
-0.09922687565504337
-0.09805822711222037
-0.09741099045621687
-0.09719441574737822
-0.0973142050927225
-0.09767605157747776
-0.09818563926508105
-0.09874864319717927
-0.09927072939362871
-0.0996575548524949
-0.0998147675500532
-0.09965214158147959
-0.09916519928789258
-0.09843031710651128
-0.09752701770380304
-0.09653481472444453
-0.09553321279132199
-0.0946017075055312
-0.09381978544637733
-0.09326692417137515
-0.09302259221624884
-0.09316177884232243
-0.09366289014833387
-0.09441109442787055
-0.09528775003230039
-0.09617420629120106
-0.09695180351235927
-0.09750187298177185
-0.09770573696364471
-0.09744470870039329
-0.09660009241264263
-0.09505847504980323
-0.0928256085796516
-0.09002501777605003
-0.08678523168713737
-0.08323477033926148
-0.07950214473697992
-0.0757158568630599
-0.07200439967847831
-0.06849625712242072
-0.06531990411228301
-0.06259949188066778
-0.06035779441909346
-0.05851501027889721
-0.05698677467643093
-0.05568871380625568
-0.05453644484114242
-0.053445575932071235
-0.052331706208231965
-0.05111042577702374
-0.04969731572405539
-0.04801173521332197
-0.04606592418795591
-0.043968336563850054
-0.04183187123375417
-0.03976941806862748
-0.03789385791763911
-0.03631806260816744
-0.03515489494579999
-0.03451720871433439
-0.03451784867577748
-0.03526393005538825
-0.036715953075144636
-0.038678929790552076
-0.040950366166507754
-0.04332808458543264
-0.04562167314373935
-0.04763134681306344
-0.04915005078811615
-0.049970891108935725
-0.04988713466088797
-0.04870012429532204
-0.046423490102116244
-0.0433013412737783
-0.03958950906489625
-0.035543985575385004
-0.03142092375048744
-0.027476637380773144
-0.023967601102139337
-0.021150450395809955
-0.01928198158833673
-0.01860966123225998
-0.01911490031342037
-0.02048334221838393
-0.022385337290440246
-0.024491396718205938
-0.02647219253562481
-0.027998514763060228
-0.0287411428305674
-0.028370974154620678
-0.02655906699702153
-0.02298807614865504
-0.01767686908464442
-0.011026927305277916
-0.0034606303952288905
0.0045994932978978414
0.01273075462699775
0.02051030359963936
0.027515129378063614
0.033322060279185224
0.03750776377459074
0.03966156524434722
0.03976764457674238
0.03827030188537077
0.03563964408767215
0.032345617255759455
0.02885800661641829
0.025646436551106072
0.023180370595954104
0.02192911144176598
0.022361800934018412
0.024936108247204734
0.029743638947666233
0.03643930512514999
0.0446522821409232
0.05401158451092663
0.06414606590577288
0.07468441915074775
0.08525517622580912
0.09548670826558933
0.1050072255593916
0.11345187586969692
0.12069692317141964
0.12691319743029944
0.13228929040051907
0.1370136329909341
0.14127449526507277
0.14525998644113652
0.14915805489199907
0.15315648814520663
0.1574429128829792
0.1622007032438913
0.16746676122335188
0.1730948299842247
0.17892780822320678
0.18481568993496425
0.19059677440766323
0.19610620540030746
0.20117949769540797
0.20565253709898396
0.20936158044056125
0.21214763094874295
0.21401684664978438
0.21518679489349363
0.2158892182010523
0.21635623011714955
0.21682031520998368
0.2175143290712589
0.21867149831618726
0.22052542058348928
0.22331006453539215
0.22725476170329578
0.23239031247443045
0.23848704492814132
0.245297975650346
0.2525764922504708
0.26007635336144996
0.2675516886397234
0.27475699876524096
0.2814471554414575
0.2873774013953381
0.2923067999415955
0.2961394476655143
0.2989740819482581
0.3009234534320795
0.30210068378273897
0.30261926568950465
0.3025930628651521
0.302136310045965
0.30136361299173364
0.3003899484857569
0.2993289586919133
0.2982190248357781
0.2969948872705346
0.2955840944874871
0.2939145660014477
0.29191459235073614
0.28951283509717946
0.28663832682611257
0.2832204711463779
0.279189042690325
0.27447617403356434
0.2691076628175958
0.2632410725742611
0.2570442261872103
0.2506853175635991
0.24433291163409468
0.23815551807765115
0.2323126628839265
0.22697272864865717
0.2223089967364065
0.2184917583817874
0.2155540529407114
0.21333105040370304
0.21164229482474106
0.21030709161256175
0.20914450753065886
0.2079733706972815
0.20661227058543705
0.20487955802288843
0.2025933451921567
0.19957364356438248
0.19575331361686954
0.19123204644674394
0.1861227468489598
0.18053808097322796
0.17459047632401653
0.16839212176055038
0.16205496749681086
0.15569072510153645
0.1494108674982227
0.14332586860559646
0.13750316699319287
0.13194520293416528
0.1266487874604666
0.12161049295880691
0.11682665317065288
0.11229336319222821
0.10800647947451314
0.10396161982324512
0.10015416339891828
0.09657915294198542
0.09322552605977652
0.0900728886581638
0.08709982579939252
0.08428468390046495
0.08160557073313979
0.07904035542393287
0.0765666684541171
0.07416190165972152
0.07180320823153283
0.06946789382870305
0.06715808955526184
0.0649154845850751
0.062785065991986
0.06081158220459527
0.05903954300625991
0.057513219535093946
0.05627664428396855
0.055373611100510936
0.05484770414757345
0.05474375099771493
0.05502377954914402
0.05551505685276255
0.05603216801172785
0.056389171285349565
0.056399598089092395
0.055876452994573764
0.05463221372956535
0.052478831177992305
0.0492277293799334
0.0446922309333954
0.038863556905940205
0.03202974773195391
0.024506489095097346
0.01660893983518435
0.008651731948185401
0.0009489705862210374
-0.006185765942431167
-0.012439426173342458
-0.017499485485930125
-0.02105647796104739
-0.023001707637538504
-0.023568916501803518
-0.02302580683940495
-0.02164060777975095
-0.019682075296097404
-0.017419492205545166
-0.015122668169041259
-0.01306193969138085
-0.011508170121203698
-0.010731605532155332
-0.010905494477174774
-0.012032984597575541
-0.01410053555890703
-0.017095133870564286
-0.0210042928857889
-0.025816052801668807
-0.03151898065913827
-0.0381021703429782
-0.04555524258181497
-0.053867892919662215
-0.06298870626505967
-0.07279214357946306
-0.08314542392688898
-0.09390424864128208
-0.10484384369956451
-0.11570573018531886
-0.126230402368561
-0.1361573387342851
-0.14522475434066767
-0.1531709873951231
-0.1598471347019495
-0.16531225403819516
-0.1696468875861899
-0.17293064429050467
-0.17524219985795286
-0.17665929706730565
-0.1772587481098747
-0.17711643328482568
-0.17630729966413106
-0.17490458806187476
-0.17289672584246088
-0.17011325020394683
-0.16636528925424832
-0.16146303786352148
-0.15521575766416423
-0.14743177705081537
-0.13791849118035526
-0.1264823619719048
-0.11292891810682712
-0.09706284332560344
-0.07869833722897158
-0.05766977089099691
-0.03386838401844547
-0.007255751365976212
0.02218400164450042
0.05444178685818926
0.08948355338740717
0.12725028761158513
0.1676580131772684
0.2105975675493433
0.25590588439943646
0.3033376726235439
0.35261594978747307
0.40343877072414414
0.4554792275335921
0.5083854495829645
0.5617806035065228
0.6152628932056423
0.6684055598488122
0.720757193760826
0.7718858040851491
0.8214244591426832
0.868992162276885
0.914182954098326
0.9565659124846898
0.9956851525807753
1.0310598267984934
1.0621841248168697
1.088527273582043
1.1095033293734595
1.1246338758080276
1.133931251397339
1.1374596169847493
1.135295508102416
1.1275278349712927
1.1142578825011322
1.0955993102904862
1.0716781526267032
1.0426328184859315
1.0086145598160872
0.9698684744298298
0.9268257568349625
0.8799522827775899
0.8297263026926157
0.7766384417037416
0.721191699623468
0.6639014509530924
0.6052954448827127
0.5459138052912237
0.48630866975058495
0.42697460523198594
0.3682656127626485
0.3105278487371045
0.2541198442386835
0.19941250503951413
0.14678911160052363
0.0966453190714367
0.04927898702900234
0.004359867584714041
-0.03822841494218876
-0.07850599471878612
-0.11640420609678234
-0.15185220173363947
-0.18479059750325408
-0.2151714724959563
-0.24295836901851123
-0.2681262925941182
-0.2906617119624099
-0.31056255907945435
-0.3278381415754157
-0.34248783933964655
-0.3544732974503031
-0.36376073311423474
-0.37032782675472575
-0.3741637220114953
-0.3752690257406951
-0.3736558080149126
-0.3693476021231686
-0.36237947066173437
-0.3527985995976228
-0.34077334282715593
-0.3267421730468687
-0.3111923082515857
-0.29462242965256846
-0.2775426816775094
-0.2604516946794032
-0.24372583345314242
-0.22773509760387714
-0.21284754533032701
-0.19942404115325782
-0.18766535135318563
-0.177394307543842
-0.16837197888005223
-0.16035272577417112
-0.15308419989608507
-0.1463073441732107
-0.13975639279049432
-0.13315887119041364
-0.12623559607297682
-0.11870110871819121
-0.11042100915876508
-0.10164592022171648
-0.09267952038827992
-0.08381877939721982
-0.07535395824483292
-0.06756860918494446
-0.060739575728910936
-0.05513699264561992
-0.05102428596148844
-0.048657799804619116
-0.048129377728883885
-0.04912215268218003
-0.05124946373357249
-0.054124567760470546
-0.057458448495108755
-0.060945038086354084
-0.06425630591944859
-0.06706480599754439
-0.06904367694170949
-0.0698669243103648
-0.06934919512108678
-0.06767187581487634
-0.06507603257532965
-0.06180331620395688
-0.058095962120180505
-0.05419679036133724
-0.0503492055826762
-0.0467971970573593
-0.043785338676463184
-0.04155861617845485
-0.04026088922281154
-0.039763711739793164
-0.03989393152206749
-0.040478980980214775
-0.04134687714272925
-0.04232622165601832
-0.043246200784401785
-0.043936585410113124
-0.044227731033299696
-0.043950671674561834
-0.04300348833643622
-0.04146786830480905
-0.03945731610526092
-0.03708592088128507
-0.034468356394288704
-0.031719881023591474
-0.028949766806737234
-0.026262680081450204
-0.023769445853132724
-0.021580891857914307
-0.01976087259210927
-0.018240395708142294
-0.01692719247028967
-0.01572903184771058
-0.014553720514447428
-0.013309102849425304
-0.011903060936453012
-0.010243514564221692
-0.008238421226306074
-0.005795816315735829
-0.0028668973098116834
0.00047196234609275106
0.004121781621548165
0.007983541781241783
0.011958186384978257
0.015946621287678563
0.019849714639380973
0.023568296885241043
0.027003160765530432
0.030055094063468693
0.03266939286176828
0.03492402743489416
0.03692153428166253
0.03876441219600944
0.04055512226698484
0.042396087878758315
0.04438969471061394
0.046638290736955454
0.04924418622730017
0.052309633337897496
0.05589936596898891
0.059963419299114876
0.06442994174642894
0.06922704402420521
0.07428279914083041
0.07952524239981262
0.08488237139977298
0.09028214603445275
0.09565248849270742
0.10092129253000359
0.10603971009584551
0.11103204701347541
0.11593690586407057
0.12079354792636093
0.12565237147676409
0.13055435765207857
0.1355356566035842
0.14063242940539986
0.14588084805449178
0.15131708880886466
0.15695543933678724
0.16273955404606633
0.16859888043580126
0.1744628769279302
0.18026101286723897
0.18592276852135273
0.19137763508074343
0.1965551146587227
0.2013847202914494
0.20579598325322088
0.20975345808542786
0.21333770826915985
0.21665329863609004
0.2198048049407304
0.22289681386044174
0.2260339229954219
0.22932074086871868
0.2328618869262166
0.2367619915366489
0.24112569108472162
0.24602126870386304
0.2513932746380172
0.2571599723164348
0.2632396360912058
0.2695505512372671
0.276011013952395
0.2825393313572138
0.28905382149518555
0.29547281333262104
0.3017146488926224
0.3077243196150893
0.3135399407514023
0.31921997105323124
0.324822880195085
0.33040714877432037
0.3360312683111326
0.34175374124856456
0.34763308095249856
0.3537278117116641
0.360096467373791
0.36676518834096944
0.3736437721399741
0.38061592157214574
0.38756535036166423
0.39437578315555666
0.40093095552368996
0.4071146139587772
0.4128105158763719
0.41790242961487406
0.42227413516237655
0.4258493044038795
0.4286987301199385
0.43092712807063316
0.43263922493888235
0.4339397583304532
0.4349334767739505
0.43572513972082777
0.4364195175453771
0.4371213915447375
0.43793555382347654
0.43894599197379675
0.44015782229712475
0.441557489332766
0.4431314485428661
0.44486616631241693
0.4467481199492508
0.4487637976840453
0.45089969867031965
0.4531423329844385
0.45547822161763496
0.4578826962091111
0.46028749272956554
0.462613747131408
0.46478260628989027
0.46671522800310866
0.4683327809920016
0.46955644490035137
0.47030741029478357
0.47050687866476704
0.4700760624226136
0.4689686000345489
0.4672677033134783
0.46507073970153406
0.46248414465658916
0.45962989606272653
0.45662993497683957
0.4536061656286318
0.4506804554206169
0.44797463492811845
0.4456104978992702
0.4436821901271939
0.4421703502312884
0.44102643534850716
0.4402018657678706
0.4396480249512069
0.43931625953315734
0.43915787932116956
0.4391241572955049
0.43916632960923185
0.43923559558823116
0.4392819128597222
0.4392501150037392
0.43908365635772323
0.4387259544244865
0.4381203898796472
0.43721030657163723
0.4359390115216956
0.4342497749238736
0.4320858301450305
0.42939037372483807
0.4261236917215212
0.4223203271867331
0.41803492712722107
0.41332210208962245
0.40823642579338176
0.4028324351307569
0.39716463016681175
0.39128747413942466
0.38525539345927984
0.37912277770987507
0.3729523502864092
0.3668441059906445
0.3609083930875682
0.3552555234522862
0.3499957721327166
0.3452393773495836
0.34109654049642596
0.3376774261395877
0.33509216201822833
0.33345083904431116
0.3328048930710442
0.33293728136468626
0.3335541263581797
0.3343615075051485
0.3350654674320282
0.3353720119380626
0.33498710999530973
0.3336166937486313
0.33096665851570595
0.32674286278701586
0.3207343049169743
0.313121333746598
0.3041992769512035
0.2942634408987618
0.2836090951300567
0.27253147235868064
0.2613257684710376
0.2502871425263401
0.2397107167566124
0.22989157656668494
0.22106912266529116
0.21321365151644708
0.20621420860088913
0.19995978560369257
0.19433933738274575
0.18924178196874375
0.18455600056519547
0.18017083754841529
0.1759751004675324
0.17185756004448144
0.1677211889089315
0.1635396709092696
0.15930858477642015
0.1550234790857076
0.15067986558527122
0.14627321919605574
0.14179897801182062
0.13725254329913072
0.13262927949736517
0.12792451421870923
0.12314382079712088
0.11834524073028778
0.11360349384793346
0.10899327021621513
0.10458922307410463
0.1004659688333795
0.0966980870786309
0.09336012056725682
0.09052657522946876
0.08827192016828429
0.08664092597613032
0.08552264976126388
0.08475516530980616
0.08417646589523801
0.08362450796385332
0.08293721113475205
0.08195245819984824
0.08050809512386178
0.07844193104432698
0.07559173827158443
0.0718326154327017
0.06724115854776766
0.06196157367845481
0.05613807985034841
0.04991486006304512
0.0434360610547883
0.03684579274852654
0.03028812824001622
0.023907103797827206
0.01784671886333642
0.012237018090660627
0.007131947188962134
0.0025594684221753594
-0.0014524689543088734
-0.004875904519347728
-0.007682866686048208
-0.009845372701763448
-0.011335428648097372
-0.012125029440900246
-0.012186158830272922
-0.011512708783389607
-0.010223495148148302
-0.008481521233357384
-0.0064498303479198285
-0.004291454634987511
-0.0021694150719601523
-0.0002467214704850794
0.001313627523539633
0.0023486444299701476
0.0026953529344116763
0.0022229801284160636
0.00098940925258636
-0.0008789608748481295
-0.0032556234822215665
-0.006014060632116355
-0.009027743221363332
-0.012170130981041947
-0.01531467247647979
-0.01833480510725302
-0.021103955107186854
-0.023510235038224248
-0.0255303030927417
-0.027173812864103822
-0.028450462846413872
-0.029369940368023217
-0.029941921591531705
-0.030176071513787858
-0.030082043965888358
-0.02966948161317851
-0.028948015955252177
-0.027935376847342916
-0.026699529767379257
-0.025327648784771038
-0.023906935545385345
-0.022524580529336077
-0.021267763050986276
-0.020223651258947616
-0.01947940213607976
-0.019122161499490975
-0.01923906400053816
-0.019899006233727225
-0.021054725124212515
-0.02261335638119331
-0.02448191673395704
-0.026567411746040236
-0.028776835815228087
-0.031017172173552595
-0.03319539288729576
-0.03521845885698773
-0.03699331981740692
-0.03843046051518147
-0.03946359829634306
-0.04003580062629531
-0.04009014951629253
-0.03956971581183753
-0.038417559192681125
-0.03657672817282357
-0.03399026010051282
-0.030601181158245394
-0.02635250636276625
-0.021222249253953773
-0.01542448172053399
-0.009270807738568653
-0.003073128497914083
0.002856665977323168
0.008206696828788176
0.012665096363878761
0.015920008055740467
0.017659586543274666
0.01757199763113238
0.0154082922583966
0.011355739476067148
0.005786506239817385
-0.0009266104274896561
-0.008410814481273336
-0.016293298711201665
-0.024201244741190838
-0.031761823029407873
-0.038602192868261456
-0.04434950238441561
-0.04867492224469121
-0.05156398488543595
-0.053138898723905655
-0.05352242040275627
-0.052837295398893654
-0.05120625802347155
-0.0487520314218923
-0.045597327573805455
-0.0418648472931117
-0.037677280227958014
-0.03315754406366518
-0.028430302986895105
-0.02362099383957875
-0.01885504591086534
-0.014257877324156207
-0.009954895037097624
-0.006071494841585196
-0.00273306136376341
-6.490743112348707e-05
0.0018076141361417462
0.0027766391834206615
0.0028681357168603983
0.002169282707853902
0.0007675796615261438
-0.001249469276187059
-0.0037943553185418102
-0.006779565037984736
-0.010117580366153005
-0.013720878593874684
-0.01750193237116936
-0.02136829799626043
-0.025189275029955036
-0.028816219137696636
-0.032100378232224155
-0.034892995585467663
-0.03704530982854554
-0.038408554951769494
-0.03883396030464112
-0.038172750595852435
-0.036276145893285816
-0.03303004776494384
-0.02859853489105441
-0.023279448742687767
-0.01737147823066368
-0.011173307624992765
-0.004983616554874597
0.0008989199912955645
0.006175631665936796
0.010547852762275725
0.013716922214348407
0.015425421214890316
0.015756582729723488
0.014961586238855355
0.013292796066435329
0.011002581177422206
0.008343315177583088
0.0055673763134970015
0.002927147472549834
0.0006750161829374279
-0.0009366253863348946
-0.0016821386267887317
-0.0015635992623053395
-0.0006981708217544784
0.000796099198531422
0.002801167943029719
0.005198997197026949
0.007871553386619677
0.010700807578711651
0.013568735481018036
0.016357317442062556
0.018955822979370415
0.021317407283031397
0.02342832612258336
0.025275119575389055
0.026844332359619742
0.028122513834256277
0.02909621799908879
0.029752003494716482
0.030076433602547914
0.030056076244801097
0.029681340257741794
0.028977313589518015
0.027987502089004065
0.02675558593811933
0.025325249959591394
0.023740183616957504
0.022044081014564128
0.020280640897567214
0.01849356665193113
0.01672656630443176
0.0150209968195343
0.013396268665991081
0.01185984992535391
0.010419094579449489
0.009081365017246806
0.007854029210105917
0.0067444597701964044
0.005760033950497446
0.0049081336447971205
0.004196145387693653
0.003632173638474845
0.003231181529820038
0.003011959763766666
0.002993345185974619
0.0031941792829126067
0.0036333081818591857
0.004329582650901722
0.005301858308267052
0.006568998929076433
0.008149875846794493
0.010057518288805849
0.012244313569311688
0.01463129615580056
0.017141722068399506
0.019698843457070042
0.022225908601606236
0.02464616191163784
0.02688284392662843
0.028859191315875547
0.030498436878510827
0.0317326533770403
0.03258435219196704
0.03312900923765056
0.03344276628646126
0.03360176124060367
0.03368212813211641
0.033759997122872545
0.033911494504578865
0.03421274269877656
0.034739860256841004
0.0355560663818342
0.036588469318508926
0.03768250113830179
0.038682479840432174
0.03943271955395337
0.039777530537753444
0.039561219180553386
0.03862808800090992
0.03682243564721262
0.03398855689768614
0.030000022801454564
0.025049451395570174
0.019525600228122143
0.013820082782687183
0.008324508672676478
0.0034304836413367318
-0.00047039043825400015
-0.002986515563177805
-0.0037262976006884538
-0.0022981462882029347
0.0016446578628591633
0.00794394356098515
0.016123556359373133
0.025702376020422302
0.036199278436369775
0.047133135629286504
0.05802281575107625
0.06838718308348078
0.07774509803806692
0.08561541715624513
0.0915550600696431
0.095563470954231
0.09792559231871854
0.09893112117170044
0.09886975065160333
0.09803117002669037
0.09670506469505616
0.09518111618463194
0.09374900215317947
0.09269839638830098
0.09230366121260629
0.09265525806451817
0.09372211535134035
0.09547099842862782
0.0978766614346551
0.1009169900949513
0.10455049382469456
0.10873523215849189
0.11342930549115254
0.11859085507769321
0.1241749079206416
0.13009734745547719
0.136247574398882
0.14251452889671556
0.14878719195503878
0.15495458544012014
0.1609057720784304
0.16652985545664978
0.17171598002165797
0.17635333108054527
0.18034163090842814
0.18371545216024043
0.18660286896376177
0.18913387317274066
0.1914385381808472
0.19364714096084928
0.19589004002543475
0.19829763474750156
0.20100036536014831
0.20412871295668328
0.20780198062882083
0.21199043749941046
0.21655854623982623
0.221368556110008
0.22628275723009655
0.23116348058044234
0.23587309800159545
0.24027402219431634
0.24422870671956606
0.24759964599851486
0.2502617187541831
0.2522596031609209
0.2537614577422853
0.2549382656745867
0.25596105099433686
0.25700087859825527
0.2582288542432663
0.2598161245464977
0.26193387698528436
0.26475333989716365
0.26843028136501607
0.2728997695598962
0.27793253973678755
0.283295448412556
0.2887553929642748
0.29407931162921985
0.29903418350487354
0.30338702854892324
0.30690490757925926
0.3093549222739795
0.3105189835590331
0.31039689882605986
0.30915463884933897
0.3069623980595557
0.3039904117475994
0.3004089560645647
0.29638834802175085
0.2920960344994982
0.28769446074699895
0.2833672192094612
0.2792925785313358
0.2755324780627151
0.27205798824166305
0.26883760593566214
0.26583966282722543
0.26303232541389965
0.2603835950082622
0.25786130773792443
0.25543313454552813
0.2530665811887487
0.25072854422643204
0.24837871665328293
0.24597099892538166
0.2434589689409437
0.24079603941321145
0.23793545787046438
0.2348303066560102
0.23143350292819248
0.22769779866038345
0.22357578064099104
0.21902302684540093
0.21404685468532358
0.20869690791786552
0.20302391520674112
0.19707844003069264
0.19091088068349898
0.1845714702739671
0.1781102767259401
0.17157720277828897
0.16502198598492096
0.15849328561380793
0.1520240108172445
0.14563384223395676
0.1393418914669832
0.13316710493439038
0.12712826386928083
0.12124398431978628
0.11553271714907379
0.11001274803533859
0.1047021974718123
0.09961769857173705
0.09475228312812793
0.09007870474884878
0.08556889916419984
0.0811946369195106
0.07692752337514601
0.07273899870649964
0.06860033790400105
0.06448265077310836
0.060356881934315036
0.05619657153582901
0.052025941200471056
0.04791372455692489
0.04393001039240049
0.04014472230913638
0.03662755273268311
0.0334477649367285
0.030674391018272115
0.02837629788934292
0.026622187277005306
0.02547527648371925
0.02489675884233805
0.024756030619199475
0.02491905621763873
0.025251634856019466
0.025619400567740744
0.025887822201230832
0.025919402287512848
0.025563937662686914
0.024685300475295074
0.02315658194900199
0.020998712645131038
0.01836871255175094
0.015427813215494458
0.012336347943289017
0.009253751876682797
0.0063385619918419935
0.003748417099552648
0.0016400578452197695
0.0001693267088676148
-0.0005166005983721147
-0.0004325569405169982
0.00025381078160920806
0.0013680297967685155
0.002734729168338626
0.004177639794319728
0.005519594407329052
0.006582527574604542
0.007187475698002148
0.007154577013996882
0.006309133852520285
0.004606517795313299
0.0021276329249963546
-0.0010423602860738443
-0.004819199530922715
-0.009119520667955058
-0.013860857720958606
-0.018961642879099398
-0.024341206496927385
-0.02991977709437068
-0.03562180978580461
-0.04144761647447498
-0.04747249017256467
-0.05377254695358975
-0.06039274740547509
-0.06736291378550474
-0.07470747544099625
-0.08244456671241703
-0.0905860269333734
-0.09913740043062275
-0.10809460817851665
-0.11736908035940846
-0.12678683206883268
-0.13616407018296522
-0.14531070657112036
-0.15403035809576418
-0.16212034661249983
-0.16937169897008286
-0.1755691470104076
-0.18049112756851876
-0.18391605158975702
-0.18576980360006243
-0.18613125943202025
-0.18508037300371352
-0.18269080322636755
-0.17902991400435425
-0.17415877423518902
-0.16813215780953425
-0.1609985436111963
-0.15289470535106892
-0.14412099175677207
-0.13448949520371029
-0.1236144111734535
-0.11112786553723822
-0.09668963555525098
-0.07998714987660108
-0.060735488539353066
-0.03867738297048708
-0.013583215985945467
0.014748978209417053
0.046489046002880806
0.08165943883167513
0.12012494402895685
0.16171617132956123
0.20623607907934918
0.253459974235283
0.3031355123653463
0.35498269764862866
0.40869388287523667
0.4639337694463851
0.5203384382537792
0.5774891345059127
0.634909233727809
0.6920928820046698
0.7485065740327145
0.8037053008047307
0.857188642071568
0.90814227195242
0.9557998596530898
0.9994511636480634
1.0384480052413358
1.0723738355479373
1.10106797586952
1.1244366838550381
1.1424423064220586
1.155103279756807
1.1624941293141295
1.1647454698175244
1.1620440052591197
1.1546325288996853
1.142802485453663
1.1266722094707466
1.1061490562626093
1.0811814032218448
1.0517737170097092
1.0179865535560653
0.9799365580594492
0.937796464987
0.8917950980745325
0.8422173703264588
0.7894091184212274
0.733928646447632
0.6765769114315057
0.6181953497481679
0.5591661545779447
0.49987840451019944
0.44080548695565186
0.3823958581267248
0.32507304303764906
0.2692356355043591
0.2152556845769819
0.16342546175948935
0.1139453109729548
0.0669865708229826
0.02269564871697448
-0.01880597913595307
-0.05742176772488944
-0.0930801032372047
-0.12573430305848105
-0.1553626157725747
-0.18196679533775761
-0.20552254218128105
-0.225966719081125
-0.24325709717653732
-0.2573763788049949
-0.2683321975022323
-0.276157118002218
-0.28090863623717327
-0.2826691793375588
-0.28149990905407624
-0.2772082564846131
-0.27001432518513924
-0.2603749946308233
-0.24874873060391006
-0.23558367345601103
-0.2213176381080933
-0.2063781140504905
-0.1911822653428941
-0.17613693061436092
-0.1616386230633011
-0.14806923666663027
-0.13562980922146717
-0.12428741647318131
-0.11398364845495823
-0.10464976976935639
-0.09620671958828456
-0.08856511165302322
-0.0816252342742049
-0.07527705033182985
-0.06940019727525329
-0.06386557002087555
-0.058600119057560386
-0.053609613796156745
-0.04889575821514461
-0.04444993086235507
-0.04025318485499022
-0.03627624787960596
-0.03247952219212518
-0.028813084617826862
-0.025216686551355366
-0.021620521398361053
-0.017989071031421378
-0.014378422241667948
-0.010838725187109304
-0.007418313702801521
-0.004166420424884066
-0.0011331767905755127
0.001630386961822567
0.004072341792929257
0.006139859862280814
0.007780264809755296
0.008989296500272524
0.009831251036008244
0.010374752666702165
0.01068752684101369
0.010836400206520533
0.01088730060972003
0.010905205562605838
0.01095398764240646
0.01109656909184685
0.011394626444418628
0.01189166275616825
0.012605364931791081
0.013550581039835152
0.01474126034776828
0.01619045332197647
0.017910311627765
0.019912088129357217
0.022206136889896574
0.02480191317144405
0.02770728770856172
0.03089296040985603
0.034275146156042643
0.037764846287555776
0.041272163343749405
0.04470630090142207
0.04797555895458428
0.05098733323318629
0.05364812036761183
0.05586351818716201
0.05753967706821597
0.05866445785687808
0.0593737888586347
0.05980684875589937
0.060093402093413
0.060363176095926466
0.060745860668202645
0.0613711083950152
0.06236853454114875
0.06386771705139814
0.0659966115691878
0.0687880375349898
0.07212737380069648
0.07588728204714838
0.07994038663519887
0.08415927460571035
0.0884164956795579
0.09258456225762637
0.09653594942081214
0.10014309493002196
0.10327970954651615
0.10590343716504391
0.10810521248822433
0.1099877811367238
0.11165385141122133
0.11320609429240504
0.11474714344097613
0.11637959519764432
0.11820600858313351
0.12032890529817532
0.12284978655890555
0.12580268467558806
0.12911190903398817
0.1326916655618598
0.1364561228669695
0.14031941223709324
0.14419562764001964
0.14799882572354633
0.1516430258154845
0.15504220992365328
0.15811124409510766
0.16083273708810222
0.16330221592467056
0.16562587229366377
0.1679098605639482
0.1702628065985502
0.17281204148256335
0.17566587963836539
0.17892720839078236
0.18269894317263202
0.18708313657858627
0.19211140490953155
0.19769507602071304
0.20373374083446552
0.210127018381124
0.21677455579901228
0.22357602833445486
0.23043113934176687
0.23723962028326248
0.24390123072924738
0.2503160450824167
0.2564086061591082
0.2621462454237035
0.2675006366059141
0.27244348154345
0.27694651018201205
0.28098148057530087
0.28452017888500786
0.28753441938082297
0.2899960444404277
0.2918777424366088
0.293227567490392
0.2942286727938651
0.2950782961809256
0.2959737035934697
0.29711218908138354
0.29869107480255613
0.30090771102286323
0.3039595288696606
0.3080441985922185
0.3133579324700368
0.31994336013947605
0.327560899229001
0.3359407066597273
0.3448129674607613
0.35390789476920825
0.36295572983016555
0.371686741996726
0.37983122872997743
0.38711951559900487
0.3932834089157269
0.3982123681261387
0.40209270841994815
0.4051436131607695
0.4075842938202079
0.4096339899778672
0.41151196932134254
0.4134375276462273
0.41562998885610836
0.4183087049625682
0.4216919191022071
0.42586335136792913
0.4306470423727191
0.43583744567333993
0.44122904293454807
0.44661634392909716
0.4517938865377337
0.4565562367492014
0.4606979886602366
0.4640137644755722
0.46629912676718144
0.46746782193247594
0.46766740436105136
0.46707292694140523
0.4658594706700311
0.4642021446514156
0.46227608609804094
0.46025646033038525
0.4583184607769192
0.4566373089741128
0.4553878756558771
0.45469114103345876
0.4545587468545469
0.4549891234185225
0.45598072913275983
0.45753205051263074
0.45964160218149935
0.46230792687072686
0.4655295954196681
0.46930520677567517
0.4736329670510804
0.47844502696636043
0.483536138596636
0.48868394655203073
0.49366612355066597
0.49826037041865207
0.5022444160900998
0.505396017607114
0.5074929601197932
0.508313056886232
0.5076350022234133
0.5053859136867792
0.501809361730457
0.4971895750324996
0.4918108103789565
0.48595731064854025
0.4799060028860106
0.4739394536125187
0.4683472585068791
0.463418970044184
0.4594433187518332
0.4565581052042495
0.45457116155417476
0.4532466594075538
0.45234872716661184
0.45164145002985157
0.45088886999205774
0.4498549858442891
0.4483037531738889
0.44599908436447566
0.44270539563393385
0.43830573790463834
0.4329492462999309
0.4268212303223258
0.4201069562706135
0.41299164723987036
0.4056604831214444
0.3982986006029679
0.39109109316834656
0.3842230110977728
0.37787904635537445
0.37216685004794764
0.36701693970125
0.362334984876103
0.35802661192959995
0.3539974040151159
0.3501529010823026
0.34639859987709753
0.34263995394170993
0.3387823385618052
0.33473106414015996
0.330424197573578
0.32587722514465584
0.3211167552300045
0.3161693530025121
0.31106154043135253
0.30581979628197165
0.3004705561160969
0.29504021229173233
0.289555113963168
0.2840415416278404
0.2785176815246553
0.2729821919111046
0.2674307982005734
0.261859182602719
0.25626298412347975
0.2506377985650711
0.2449791785259938
0.23928263340102127
0.23354362960766922
0.2277576252361178
0.22192929598622071
0.21608623797743776
0.21025950742735833
0.20448011734984933
0.1987790375550632
0.19318719464942496
0.1877354720356402
0.18245470991269402
0.17737570527584834
0.17252918037560616
0.1679324768845111
0.16356891401380766
0.1594164354920086
0.1554529418439121
0.15165629039059003
0.1480042952493942
0.14447472733395364
0.1410453143541831
0.13769374081626984
0.1343976539704697
0.13113760852197207
0.127901829967778
0.12467974559240745
0.1214607394766604
0.1182341524976158
0.11498928232863474
0.11171538343935364
0.10840166709568942
0.10503730135983584
0.10161143113421356
0.09812495806647498
0.09461039992710832
0.091105485682067
0.08764790109358879
0.08427528872018548
0.08102524791664911
0.07793533483404982
0.07504306241974094
0.07238590041735048
0.07000124058782567
0.06790181562681342
0.06603252875278157
0.06432667226232604
0.06271749524832172
0.06113854758292095
0.05952476181689773
0.057808434966088104
0.0559214058213435
0.05379552365241547
0.051362681961917026
0.04858394243551656
0.0455027965208911
0.04217720629707144
0.03866514432199176
0.035024593632484
0.03131354774428205
0.027590010652019208
0.023911996829233416
0.020337531228359663
0.01692463395538194
0.013714893167719714
0.010702194888905921
0.007871830196252516
0.005209100645974215
0.002699318273184657
0.00032780559190071987
-0.001920104404962159
-0.004059068245586864
-0.006103731979255757
-0.008068727064710934
-0.009963081529249292
-0.011779150341748881
-0.01350618885746964
-0.015133441952768622
-0.016650144025104507
-0.0180455189930341
-0.01930878029621409
-0.0204291308953989
-0.02139576327244337
-0.022197861311339818
-0.022833714917331646
-0.02332952755754729
-0.023716813832045682
-0.024027077861984162
-0.024291813289620285
-0.02454250327830935
-0.02481062051250708
-0.025127627197767843
-0.025524975060745587
-0.026034099926867345
-0.02667359591207586
-0.027421741704091812
-0.028248912212310146
-0.02912547186722421
-0.03002177462042755
-0.03090816394461224
-0.03175497283357005
-0.03253252380219151
-0.03321112888646649
-0.03376109390576544
-0.03416672570865669
-0.03445751945828355
-0.03467205653733019
-0.03484890784958004
-0.035026633819915734
-0.035243784394318814
-0.03553889903987037
-0.03595050674475052
-0.03651712601823878
-0.037277259878201185
-0.03824541007380665
-0.03935658493582714
-0.04052934384789216
-0.04168223571473027
-0.04273379896216957
-0.04360256153713715
-0.04420704090765901
-0.0444657440628608
-0.04429716751296724
-0.04361980242238747
-0.042390170130462965
-0.04069423021033
-0.03864544188547755
-0.03635725390049408
-0.033943104521067365
-0.031516421533984096
-0.029190622247129677
-0.027079113489490943
-0.025295291611151596
-0.023952539741293667
-0.02313000166259955
-0.02278716619958296
-0.022857385554895807
-0.023274001452288858
-0.023970345136612236
-0.024879737373815356
-0.025935488450946675
-0.027070898176154323
-0.028219255878684565
-0.029313840826398575
-0.030297841814917115
-0.03115005675506652
-0.03185726484707251
-0.03240623481225901
-0.03278372489305003
-0.032976482852968524
-0.032971245976636684
-0.03275474106977561
-0.03231368445920617
-0.031634782215747434
-0.030716959978122092
-0.029604246193730737
-0.028351058427626457
-0.02701180376596117
-0.02564087881598747
-0.0242926697060556
-0.023021552085615675
-0.021881891125216896
-0.02092804151650747
-0.02021434738055483
-0.01977860696946489
-0.019595945510230375
-0.019626636577545938
-0.01983094326720573
-0.020169118196102818
-0.02060140350222959
-0.021088030844677697
-0.021589221403637802
-0.022065185880400077
-0.02247612451381603
-0.022805355223468254
-0.02312610065960548
-0.023533536429232147
-0.024123254383951565
-0.02499084920147863
-0.02623190765043558
-0.02794200859035321
-0.030216722971670343
-0.03315161383573364
-0.03684223631479894
-0.0413231988754299
-0.04638534704871277
-0.05175857970004408
-0.05717278778572828
-0.06235785435297769
-0.067043654539914
-0.07096005557556308
-0.07383691677986275
-0.07540408956365735
-0.07539141742869959
-0.07363156840183668
-0.07037980148985475
-0.06599991155811646
-0.060855685640152334
-0.05531090286040084
-0.04972933443420696
-0.044474743667828595
-0.03991088595842661
-0.03640150879407153
-0.03431035175374198
-0.03389363100037694
-0.03495360177195227
-0.037172722419450376
-0.04023345059136876
-0.0438182484507297
-0.047609571346766966
-0.051289866719622955
-0.054541574100345366
-0.057047125110892855
-0.058488943464131166
-0.05863727280952283
-0.057643344711609194
-0.05576166939642692
-0.05324675106337511
-0.05035308600276135
-0.047335162595800936
-0.04444746131461745
-0.041944454722241654
-0.04008060747261469
-0.03911037631058315
-0.03921939260712963
-0.04028655794849774
-0.042105344402585586
-0.04446921253296225
-0.04717161499410631
-0.05000599653140397
-0.05276579398114961
-0.05524443627054595
-0.05723534441770186
-0.05853193153163644
-0.0589783861443918
-0.05865145077431621
-0.05769439323282318
-0.056250478752066735
-0.05446296465511052
-0.052475100355924516
-0.05043012735938732
-0.048471279261285694
-0.046741781748313775
-0.045384852598075134
-0.04450399351850244
-0.044015851848256696
-0.0437821590818363
-0.0436646313955444
-0.043524977056592556
-0.043224896423100144
-0.04262608194409469
-0.04159021815951151
-0.039978981700194136
-0.037654041287893264
-0.034524017874224266
-0.030724585188158224
-0.02645994407400096
-0.021934301786321945
-0.017351857670597652
-0.012916803163215976
-0.008833321791469336
-0.00530560376449489
-0.0025414415634132798
-0.000746362243847172
-7.454579959950344e-05
-0.0004421035408391366
-0.0016913690850923063
-0.003664686898584263
-0.0062044347494404
-0.009153023707687238
-0.012352898145248245
-0.01564653573595038
-0.01887644745551922
-0.021885177581580626
-0.024535900022977387
-0.026796991446793234
-0.028670342909757736
-0.030157892919209624
-0.031261613284387146
-0.03198350911643
-0.032325618828376895
-0.03229001413516637
-0.031878800053637524
-0.031094114902530355
-0.02994631809173066
-0.028488810507592
-0.02678923079052395
-0.024915298246536936
-0.02293476548354029
-0.020915418411343735
-0.018925076241656635
-0.017031591488090338
-0.01530284996615425
-0.013806770793258462
-0.01259415517272558
-0.011623325134180337
-0.010821583320971712
-0.010116242850080524
-0.009434650140387187
-0.008704184912674901
-0.007852260189624132
-0.006806322295816982
-0.005493850857733084
-0.0038423588037566243
-0.0017943028425678118
0.0006251561567489523
0.003362334499897833
0.006363488636692411
0.009574841715049812
0.012942583580985982
0.01641287077861791
0.01993182655015877
0.023445540835925583
0.026900070274333505
0.03024693650036229
0.0334689667848356
0.03656004196180687
0.039514022397962596
0.04232473515809171
0.04498597400507729
0.047491499399907475
0.049840265059377144
0.05203775981254817
0.05407001645544121
0.05593837054504571
0.057740916907567025
0.05961093522892941
0.06168182979981264
0.06408707991006828
0.06696023984871373
0.07043493890393308
0.07464488136307124
0.07972384651264505
0.08580568863833647
0.0929838928945267
0.10110833145296995
0.10993812498700714
0.11923231488702969
0.12875001754259863
0.13825042434243084
0.14749280167442014
0.1562364909256225
0.16424090848226292
0.17126554572972597
0.17711500093794
0.18187296601447708
0.1857299344979975
0.18887669006042607
0.19150409137285937
0.19380307210555775
0.195964640927952
0.1981798815086311
0.20063995251535685
0.20353608761505523
0.20702648373873578
0.21105841257188984
0.21549640000123657
0.22020485105293486
0.22504824575231083
0.22989113912385256
0.23459816119121912
0.23903401697723367
0.24306348650388698
0.24655142479233336
0.2493836872727729
0.2515833620039171
0.25322885144510654
0.2543987847747789
0.25517186617054033
0.25562687480916274
0.25584266486658414
0.2558981655179086
0.2558723809374069
0.25584439029851563
0.25588160721417463
0.2559723539768445
0.2560723165796783
0.25613715259938064
0.2561225946118212
0.25598445019203786
0.2556775816347971
0.2551463663515352
0.2543549945188586
0.2532740940749005
0.25187658562446824
0.25015224247747825
0.24809793193609192
0.24571055725454355
0.24298690459696984
0.23992360070059787
0.23651711287574204
0.23276374900581082
0.22865965754729764
0.22420082752978712
0.21939055408826566
0.21428527213099963
0.20896443125765446
0.2035074164808894
0.19799345338645596
0.192501608133192
0.1871107874530308
0.18189973865098946
0.17694704960517618
0.1723311487667864
0.16811865865952083
0.1642904636990787
0.16078912557847908
0.15755687065263443
0.15453576584955386
0.15166771867032788
0.14889447721207044
0.14615763254075975
0.1433986207574249
0.14055871902314163
0.13758324752081036
0.1344491546788789
0.13114776715258383
0.12767032720075705
0.1240079176553227
0.12015146192129193
0.11609172397677103
0.11181930837295023
0.1073246602341106
0.10259806525762077
0.09763393150813189
0.092459853967545
0.08711890677303247
0.08165409452286221
0.07610826238839725
0.07052409611408401
0.06494412201746086
0.05941070698915308
0.053966058492880845
0.04865222456544821
0.04350809949332139
0.03854840375686787
0.03377615077282972
0.02919412097413896
0.024804935366818784
0.020611055529980216
0.016614783615827983
0.012818262349652297
0.009223475029834085
0.005832245527841218
0.0026476254978494308
-0.0003160336603894309
-0.0030388905065540824
-0.005501099840803835
-0.007668943430910516
-0.00951935870768661
-0.0110416912673195
-0.012225454500192395
-0.013060329590881978
-0.013536165518162478
-0.013647179202370192
-0.013423499660641453
-0.01291348938918276
-0.012165818160334949
-0.011229323540632035
-0.010153010890804186
-0.008986053365775395
-0.0077777919146660435
-0.006577735280793723
-0.005435560001669813
-0.00440567610969831
-0.0035826999437388804
-0.003082159073645948
-0.003019924149479568
-0.003512033615494535
-0.00467469371014162
-0.006624278466066648
-0.009477329710112337
-0.01335055706331411
-0.018360837940904286
-0.024600151198615146
-0.03193407918760778
-0.04010805912005798
-0.048866587226895936
-0.05795432753324076
-0.06711611185841382
-0.07609693981592558
-0.08464197881348642
-0.09249656405300072
-0.09940619853057069
-0.10514740190528044
-0.10978432048949843
-0.11353771947090388
-0.11663014451162469
-0.11928449064935663
-0.12172386611134622
-0.12417154691903032
-0.1268509768880452
-0.12998576762821326
-0.133870329015933
-0.13900252919023331
-0.14523926851322208
-0.15229385720532873
-0.15988994054022698
-0.16776237771501626
-0.1756572418502296
-0.18333181998981843
-0.1905546131011758
-0.19710533607512043
-0.20277491772590328
-0.2073650345947622
-0.21068395635723847
-0.21254852554418804
-0.21278676762588716
-0.2112379219960427
-0.2077524419717917
-0.20219199479370004
-0.19442946162575997
-0.18434893755540463
-0.17184573159348698
-0.15683136256435576
-0.13927965426423633
-0.11920556631512767
-0.09663565059252704
-0.07160767289536801
-0.04417061294600222
-0.014384664390246823
0.017678765202685513
0.05193705434014171
0.0882963676060387
0.12665684843243163
0.16696223414557837
0.20917793608065915
0.25325859870732753
0.29914765257182846
0.3467773142969147
0.3960685865819699
0.446931258202929
0.4992639040123197
0.5529538849391701
0.607872504371258
0.6636987012684845
0.7196558810250552
0.7749282652205001
0.8287558460911741
0.880434386530159
0.9293154200873079
0.9748062509691623
1.0163699540390796
1.0535253748171458
1.0858482330528867
1.112982437647026
1.1346354893620323
1.1505707816634188
1.1606074786734542
1.1646205151711466
1.1625405965922677
1.154354199029337
1.1401035692316173
1.1198867246051412
1.0938649402437126
1.0623422986336855
1.0257348056509232
0.9845151737069638
0.9392118858700521
0.8904088474290786
0.8386571705823518
0.7846077744662184
0.7289806687933587
0.6724647265926083
0.6157004718235806
0.5590905116438734
0.5028696649648388
0.44723918615605524
0.39236919290321604
0.3383986662082237
0.28543545038903817
0.23355625307977979
0.1828066452306802
0.13320106110817606
0.0847445800553633
0.03768165989121591
-0.00759126902157406
-0.050705451305042545
-0.09132326826515205
-0.12913823789171075
-0.1638750148584046
-0.19528939052274508
-0.22316829292615015
-0.24732978679388967
-0.2676391887408189
-0.28384611726629855
-0.29613984388850206
-0.3050084372375948
-0.31093193153815063
-0.3143821696853972
-0.315822960168977
-0.3157101293808464
-0.31449152161527855
-0.3126069990688672
-0.3104636899187391
-0.3081318398107029
-0.305440183756068
-0.3022045011197806
-0.2982325891690978
-0.2933242630735886
-0.28727135590514397
-0.27985771863798414
-0.27085922014863284
-0.26004374721593654
-0.24720332899070002
-0.23256381837424114
-0.21666434406811547
-0.20004329764576725
-0.18323108858295056
-0.16675014425776213
-0.15111490995059115
-0.13683184884415364
-0.1243994420234788
-0.114308188475926
-0.10700345935055425
-0.10239367235293588
-0.09998535988233953
-0.09926767825437385
-0.0997218016869548
-0.10082092230032297
-0.10203025011702528
-0.10280701306194169
-0.10260045696226125
-0.10081227955281255
-0.09686429311623579
-0.09080616942734701
-0.0831039380262762
-0.07423446129670554
-0.0646750005135662
-0.05490321584304263
-0.04539716634256234
-0.03663530996081731
-0.02909650353773591
-0.023260002804502952
-0.019576096319578615
-0.01804652210968693
-0.018322866598861426
-0.020047807207391938
-0.022864420246817688
-0.02641618091992785
-0.030346963320764798
-0.034301040434613836
-0.03792308413801777
-0.04085816519876703
-0.04276958377353193
-0.0436036827969851
-0.04353318468929268
-0.042737530468078905
-0.04139656004221789
-0.0396905122118353
-0.037800024668305884
-0.03590613399425409
-0.03419027566355727
-0.03283428404134029
-0.0320093075894453
-0.03170461094155944
-0.03176063253408604
-0.0320138195250654
-0.032301017963789244
-0.032459472790798236
-0.03232682783788379
-0.03174112582808719
-0.030540808375701153
-0.028564715986267423
-0.025664437991673384
-0.021902752976847222
-0.017519523435840123
-0.012760472943148101
-0.007871723964518117
-0.003099797856946548
0.0013083851313174279
0.005105505860777106
0.008043846300684377
0.009875289529041608
0.010368009062862962
0.009585600791960344
0.007845136898251785
0.005471529247043474
0.002789290812389165
0.000122535677094757
-0.002205020967284829
-0.003854830568396696
-0.0044779045963365145
-0.003743840412819586
-0.001340791183227167
0.0027051792373901998
0.008071088261590533
0.01442378270242306
0.02143004043014356
0.02875652210934911
0.03606962641036955
0.043035634797877836
0.049320759793754256
0.05459114497708788
0.058528251178465586
0.06110810244348013
0.06257170415092636
0.06316944178337741
0.06315163188061036
0.06276852203961457
0.06227029091458573
0.06190704821692914
0.0619288347152534
0.06258562223537971
0.06411781723749127
0.0665765730374558
0.06983873266599414
0.0737745687039541
0.07825428478939105
0.08314801561757001
0.08832582694095861
0.09365771556923763
0.09901360936929413
0.10426336726522512
0.10928156879773387
0.11404205359821525
0.11861225270099143
0.1230631827920615
0.12746579161462612
0.13189095796909964
0.13640949171310252
0.14109213376146523
0.14600955608622024
0.15123236171661372
0.15682669226667229
0.16276372660911426
0.1689229680252123
0.17518011606715744
0.181410801344349
0.18749058552339523
0.19329496132810667
0.19869935253950768
0.20357911399582854
0.20780953159250987
0.21127245372843728
0.21399900481269607
0.2161678405903245
0.21796383035986175
0.21957177447705337
0.2211764043548548
0.2229623824634284
0.2251185762367926
0.22783714787284914
0.23130130066994303
0.23568640572058222
0.2409876171396764
0.24701774082847766
0.2535815685503413
0.26048397868500156
0.26752993622858234
0.2745244927935856
0.2812727866089038
0.2875800425198114
0.29325157198797047
0.29809914409424015
0.3020908821696587
0.3053568711955508
0.30803477568943805
0.3102623467852198
0.31217742223318956
0.31391792640001975
0.31562187026877014
0.31742735143888084
0.31947255412618053
0.321893337941923
0.32476385407994335
0.32809280524128825
0.3318858206975603
0.3361486163367444
0.34088699466321315
0.34610684479771664
0.3518141424773963
0.3580149500557756
0.3647154165027643
0.3719173865122087
0.37950511483353905
0.38723517438282307
0.3948578111378125
0.40212335769264446
0.4087822332578381
0.4145849436603018
0.4192820813433211
0.42262432536657424
0.42436244140611895
0.4242564179523895
0.4223226048358669
0.4188623156820527
0.4141918275054587
0.40862750393698277
0.40248579522390643
0.3960832637464749
0.3897366605676561
0.38376284888337353
0.3784787785059384
0.3741952478741296
0.37103983092437764
0.3689315636770064
0.3677782415272094
0.36748774648656446
0.36796804718303444
0.3691271988609666
0.3708733433810944
0.37311470922053036
0.37575961147277837
0.37871564920842793
0.3818657744430137
0.38506420555964815
0.38816362160760604
0.3910167882525447
0.3934765577765067
0.39539586907791835
0.39662765854771737
0.3970150490364802
0.3964065531698316
0.394663323498358
0.39180711491098685
0.38805129406577127
0.38362041239604927
0.3787389772189794
0.3736314406225692
0.3685221813824135
0.36363552944532723
0.35919577066386454
0.3554271467963279
0.35254726711439116
0.3505497525016502
0.3491546253788438
0.34806522895762065
0.3469848623553672
0.34561678059521184
0.34366419460602343
0.3408302712224181
0.33681813318474757
0.3313308591391062
0.32408038777833925
0.3150970087356118
0.30480919824921515
0.2936705107172788
0.2821344564436719
0.2706545016380123
0.25968406841565195
0.2496765347976874
0.24108523471095425
0.23436345798803632
0.2299538835314511
0.22790118189311886
0.22774030738262901
0.22897283223972875
0.23110028460989968
0.23362414854436747
0.23604586400009697
0.23786682683980168
0.23858838883192932
0.23771185765067207
0.23474766141554856
0.2295701599136164
0.2225309921939855
0.21401411086575794
0.20440342444377568
0.19408279734862874
0.1834360499066419
0.17284695834988403
0.1626992548161634
0.15337662734903637
0.1452572294610069
0.13848892151060035
0.13291031377829776
0.12833825902861548
0.12458956593180673
0.1214809990638679
0.11882927890653545
0.11645108184729337
0.11416304017936105
0.11178174210170186
0.10912568945445583
0.10610015028212476
0.10272973329670912
0.09904768378908266
0.0950872029558608
0.09088144789940562
0.08646353162781484
0.08186652305492986
0.07712344700033183
0.07226728418934879
0.06733119694768594
0.06235890079707188
0.057408992336074216
0.05254114728634145
0.047814997275256656
0.043290129835946725
0.03902608840727864
0.03508237608575414
0.03151846688116589
0.02839379446093817
0.025766331477710642
0.023623449360449973
0.021850702381897128
0.02032567679175727
0.018925914745472797
0.017529231991339843
0.016017024230447964
0.014266594960906938
0.012153702328858047
0.009554114198886285
0.006345484672169943
0.0025047374354946125
-0.0018445532229210623
-0.00656699583760606
-0.011527189224647579
-0.016589722481692524
-0.021619174987951125
-0.026480116404193847
-0.031037106672748446
-0.03515469601750609
-0.038698583431848385
-0.04159966348290985
-0.04388748917802915
-0.0455998169475893
-0.04677439350353291
-0.04744895583936296
-0.0476612312301428
-0.047448937232496206
-0.04684978168460756
-0.04590146270622238
-0.04464192432886807
-0.04312443867906148
-0.04142604177569104
-0.03962580496099656
-0.03780278985877629
-0.03603604837438882
-0.034404622694758316
-0.03298754528836419
-0.03186383890524658
-0.031112516577007518
-0.03081198466714412
-0.031002384950892997
-0.031663108474809715
-0.03276813880166731
-0.03429144977579861
-0.036207005523097247
-0.03848876045101721
-0.041110659248571255
-0.04404663688633477
-0.04727061861644302
-0.050756246080825435
-0.05445836599050033
-0.05830125892506699
-0.06220639150285166
-0.06609522062374003
-0.06988919346917906
-0.07350974750217587
-0.07687831046729975
-0.079916300390675
-0.08254512557999175
-0.08468668268233105
-0.08629949838051001
-0.08740314987669474
-0.0880229898122619
-0.08818436111014785
-0.0879125969748501
-0.08723302089242553
-0.08617094663049152
-0.08475167823822777
-0.08300051004637259
-0.08094308752226323
-0.07863358622560788
-0.0761749031525781
-0.07367469071100098
-0.07124059159026337
-0.06898023876131326
-0.06700125547665853
-0.06541125527036798
-0.06431784195806951
-0.06382860963695432
-0.06405021139532802
-0.06500990767057305
-0.06659606151336167
-0.06868301372819338
-0.07114509540112801
-0.07385662789978627
-0.07669192287334872
-0.07952528225255695
-0.08223099824971233
-0.08468335335867849
-0.0867572439598872
-0.08838499854274431
-0.08960192188790567
-0.09045402658188108
-0.09098731549274053
-0.09124778177011428
-0.09128140884519337
-0.0911341704307291
-0.09085204569551157
-0.09048106478780557
-0.09006690954813314
-0.08961993833657264
-0.08908561527199042
-0.08840243162229354
-0.08750886893694973
-0.086343399046987
-0.08484448406499362
-0.08295057638511846
-0.08060011868307072
-0.07773154391612008
-0.07428406660116324
-0.07028275291257818
-0.06591434701444124
-0.06138347196636343
-0.05689474110951588
-0.052652758066630126
-0.048862116741998585
-0.04572740132147356
-0.04345318627246794
-0.04224403634395536
-0.042303427101787416
-0.04370707998627349
-0.04628413735572667
-0.04983561487334315
-0.05416251848387915
-0.059065844413651244
-0.06434657917053639
-0.06980569954397214
-0.07524417259980136
-0.08046294371474237
-0.08526331035827829
-0.08949827696383947
-0.09312317807512949
-0.09610536399647165
-0.09841217531374719
-0.10001094289439794
-0.10086777498131885
-0.10094818107156998
-0.10021990263970047
-0.09865070590727607
-0.09620891467301192
-0.09294392945690942
-0.08906961644467493
-0.08481974070665274
-0.08042805504138241
-0.07612829997560645
-0.07215420376426888
-0.06873948239051497
-0.06611783956569142
-0.06452296672934615
-0.06418760222588656
-0.06519677303920893
-0.06732833995827187
-0.07032185285502271
-0.07391684932960466
-0.0778528547103672
-0.08186938205385987
-0.08570593214483352
-0.08910199349624001
-0.09179704234923289
-0.09353130156033254
-0.09417701177688381
-0.09388793072650603
-0.09285395327729623
-0.09126496202555147
-0.08931082729577317
-0.08718140714066148
-0.08506654734111838
-0.0831560814062475
-0.08163983057335347
-0.08070714397201871
-0.08045826223573938
-0.08079859813529354
-0.08160779682268324
-0.08276549117811255
-0.08415130180998447
-0.08564483705490551
-0.08712569297768291
-0.08847345337132521
-0.08956768975704218
-0.09028822467010424
-0.09057198728670067
-0.09048397991675453
-0.09010662388772836
-0.08952232825528622
-0.08881348980329296
-0.08806249304381611
-0.08735171021712322
-0.08676350129168355
-0.08638021396416781
-0.08628392972907138
-0.08649466995864913
-0.08688973710281955
-0.08732643265118648
-0.08766204582155479
-0.08775385355993087
-0.0874591205405218
-0.08663509916573697
-0.08513902956618656
-0.08282814406555974
-0.07956007922341177
-0.07530289386563314
-0.07028515729394386
-0.06477297774926438
-0.05903245120071608
-0.05332966134562224
-0.04793067960950394
-0.0431015651460932
-0.03910836483731367
-0.03621711329329377
-0.03469346214719744
-0.0346857933494554
-0.036058695802396526
-0.038634660750360025
-0.04223616716588609
-0.046685681749716865
-0.05180565893079522
-0.057418540866268984
-0.06334675744147741
-0.06941272626997055
-0.07543891123600197
-0.08126907857340979
-0.08679990575285207
-0.0919361322313633
-0.09658248519417897
-0.10064367955473603
-0.10402441795467263
-0.10662939076382856
-0.10836327608024537
-0.10913073973016318
-0.10883660171089068
-0.10745605139876296
-0.10514357527366566
-0.10208178611074697
-0.09845328441335624
-0.09444065841304475
-0.09023472423348637
-0.08602407696285531
-0.08198704729747544
-0.07830212069667691
-0.07514781264071506
-0.07263927065102699
-0.07072572230882299
-0.06932974930286882
-0.0683740913953994
-0.06778164642211969
-0.06747547029220381
-0.06737877698829695
-0.06741493856651284
-0.06750748515643602
-0.06758014007243884
-0.06757745487708991
-0.0674995973964414
-0.0673560977519721
-0.06715664413863016
-0.06691108282483521
-0.06662941815247458
-0.06632181253690646
-0.06599858646695747
-0.06567021850492664
-0.06534730873760297
-0.06501474668034801
-0.06458634377893727
-0.06396391311470152
-0.06304942584243854
-0.0617450111904172
-0.059952956460374435
-0.05757570702752052
-0.05451586634053221
-0.05067619592155712
-0.04595969776348469
-0.040340709224177124
-0.03399492063385082
-0.027133479282570778
-0.01996769053387498
-0.012709017824769315
-0.005569082665734162
0.0012403353592848054
0.007507298592871026
0.013019711304139377
0.017565403763228536
0.021022250907780635
0.023529719788284234
0.025274328526188904
0.026442437169468813
0.02722024769263364
0.02779380399672156
0.02834899190930317
0.02907153918447299
0.030147015502861897
0.03176079165376536
0.03404255689528872
0.03695642637789935
0.04043569011331007
0.04441348003975988
0.04882277002202058
0.053596375851388225
0.058666955245695235
0.06396700784930251
0.06942887523310284
0.07498479177090461
0.08057703504873365
0.086164851144445
0.09170618732625424
0.0971592842564333
0.10248267693421055
0.1076351946957617
0.11257596121421246
0.1172643944996319
0.12166020689904487
0.1257234096740164
0.12942514070629166
0.13277085815024117
0.13577297811798722
0.13844421105860147
0.14079756175810434
0.14284632933946076
0.14460410726258982
0.1460847833243578
0.14730253965858184
0.14827185441217605
0.14901301012984344
0.14956435823256245
0.14996812177782512
0.1502668181600682
0.1505032591106849
0.1507205506980117
0.15096209332733707
0.1512715817408958
0.15169300501787367
0.15227064459530865
0.1530396039312612
0.15400389846438794
0.15516134261094655
0.15651002654936144
0.15804833042715632
0.15977492872880072
0.16168879027571564
0.16378917822627112
0.16607565007578506
0.16854805345765758
0.17117541305780792
0.17382115875141083
0.1763265114434587
0.1785329863758945
0.18028239312761002
0.1814148893878833
0.18176948059285342
0.18119499820890816
0.1795408980059945
0.17665657882189906
0.1724540580419843
0.16706438616101912
0.16066639437028876
0.15343885190771908
0.14556046605787112
0.1372098821519483
0.12856568356779446
0.1198063917298863
0.11111046610933958
0.10265630343485334
0.09460349066301538
0.08704423533277308
0.08005557938828653
0.07371450282036023
0.06809792366643184
0.06328269801057826
0.05934561998351488
0.056363421762598745
0.05441277357182133
0.05357028226431293
0.05383471726705536
0.05491789367080778
0.05646542966256727
0.058122881475971166
0.05953574339129343
0.06034944773545314
0.060209364882003596
0.058760803251130554
0.05564900930966488
0.05051916838502178
0.04316320492162146
0.03392929903128467
0.02329732869987046
0.011747109959883015
-0.00024160310954125103
-0.01218911838262577
-0.023615805686957193
-0.034042096803480616
-0.04298848546649885
-0.04997552747905748
-0.054688564437185984
-0.057476506145851224
-0.058815133447599796
-0.05916906877267698
-0.05900358972949938
-0.05878462910464853
-0.058978774862881146
-0.060053270147122126
-0.06247601327846633
-0.06671555775618136
-0.07308132066250063
-0.08124420787704412
-0.09071598886240288
-0.10100908825933914
-0.11163658588678141
-0.12211221674183168
-0.1319503709997611
-0.14066609401401137
-0.14777508631619113
-0.15279370361608338
-0.15537985357206124
-0.1557711266311785
-0.15435449062323287
-0.1515175686620516
-0.1476486390396322
-0.14313663522614195
-0.13837114586991617
-0.13374241479746277
-0.12964134101345817
-0.12645947870074759
-0.12450315418790456
-0.1237167328093715
-0.12394954793746665
-0.12505158759213814
-0.12687349497150305
-0.12926656845185025
-0.13208276158763693
-0.13517468311149192
-0.13839559693421222
-0.1415994221447654
-0.14465669608763335
-0.14750785886589413
-0.150112778525879
-0.1524319786342347
-0.1544266379357756
-0.15605859035348849
-0.15729032498852716
-0.158084986120217
-0.15840637320605383
-0.15821894088170355
-0.1575305018754262
-0.1565398524943277
-0.1554994504145196
-0.15476081827221863
-0.15540078028275445
-0.15767625429771764
-0.16161987559843402
-0.16727023890798323
-0.17467189839118452
-0.18387536765461995
-0.19486016357559888
-0.2072593422548021
-0.2206110959867313
-0.2344595684309219
-0.24835486268865495
-0.2618530413029656
-0.27451612625862765
-0.285912098982179
-0.2956149003419034
-0.3032044306478393
-0.30836270873598665
-0.3112301887540416
-0.31208625183957933
-0.3112162565141511
-0.3089115207410516
-0.30546932192533194
-0.3011928969137917
-0.2963914419949805
-0.29138011289920274
-0.2864800247985103
-0.2818892548101152
-0.27718811348239203
-0.2717746080197082
-0.26505266573351527
-0.2564321733770046
-0.24532897714512433
-0.23116488267459417
-0.21336765504386024
-0.19137101877312787
-0.16461465782434032
-0.13270492890540406
-0.09605268485385385
-0.05532228223965101
-0.01118411237711308
0.03568547397762953
0.08460416662675709
0.1348836959306789
0.185829832808072
0.23674238873580739
0.2869152157490588
0.3357802463679402
0.383498953698577
0.4304610005757772
0.47705018934131743
0.5236443628951992
0.5706154046957077
0.6181030611257
0.6654283100626192
0.7122369638089472
0.758272061031363
0.8032581501175404
0.8465719446106513
0.8875166321934144
0.9254545091224903
0.9598069396636482
0.9900543560918675
1.0157362586912662
1.0364512157551298
1.0518568635858774
1.0616699064951125
1.0656704051741637
1.063720619498506
1.0557496415506316
1.041745637130004
1.0217558400452484
0.9958865521141352
0.964303143163627
0.9272300510298128
0.8849507815579502
0.8378079086024328
0.7862388028445482
0.7308976682138321
0.6723867402437007
0.6114400235491476
0.5487836312756376
0.4851128366162377
0.4210920728114599
0.3573549331493737
0.2945041709655385
0.2331116996431199
0.17369082129155702
0.11656570842399007
0.061973695023631085
0.010121210295415566
-0.038816156508267856
-0.08469365608748353
-0.12739738487642666
-0.16684430540384448
-0.20298222753623613
-0.23578980109299746
-0.26527936572314825
-0.29151080117142936
-0.31458089161386094
-0.3346172697472313
-0.35177840822081263
-0.36625361963632586
-0.3781972039696489
-0.38739892153172334
-0.3940823662047483
-0.39856400677658843
-0.4011320776094357
-0.4019464539514256
-0.40111395659343513
-0.39873302002145516
-0.39489376842108925
-0.3896780156775577
-0.38315926537569395
-0.37540271079995663
-0.36646523493441036
-0.3563954104627402
-0.3452558337522224
-0.33323917276852666
-0.3205827172464569
-0.30751555331820607
-0.2942584568155784
-0.2810238932700082
-0.2680160179125314
-0.2554306756738047
-0.24345540118409545
-0.2322694187733026
-0.22202354062611535
-0.21273217222347657
-0.20435112896377278
-0.1968277970402908
-0.19010125234592118
-0.18410226047317502
-0.17875327671417554
-0.17396844606067238
-0.16965360320402037
-0.1657062725351942
-0.16202850660691995
-0.15857352390597737
-0.15528435565445547
-0.15217153930594368
-0.14925032480683173
-0.14653676280726508
-0.14404770466113287
-0.14180080242607546
-0.13981450886348323
-0.1381080774384973
-0.13669385378349497
-0.13553300575291444
-0.13456602454390976
-0.13373413415746752
-0.13297935929832216
-0.13224452537495762
-0.13147325849960825
-0.13060998548825817
-0.12959993386063998
-0.128389131840237
-0.12693923127490966
-0.1253155231576243
-0.1236277954271396
-0.12198721490986131
-0.12050585434144381
-0.11929658716129246
-0.1184730875125605
-0.11814983024215192
-0.1184420909007195
-0.11946594574266646
-0.12130017069750587
-0.12375232504355144
-0.12651249752537552
-0.12927109356711514
-0.13171931929666306
-0.133549181545659
-0.13445348784949296
-0.13412584644730474
-0.13226066628198335
-0.12855315700016726
-0.12276569403819484
-0.1151491052974367
-0.10617248473960533
-0.09630672942238816
-0.08602353710720924
-0.07579540625924841
-0.06609563604743253
-0.05739832634443949
-0.05016455806186246
-0.04483316213428554
-0.041796219081041676
-0.04090798066146253
-0.04177628698997292
-0.044007760434041664
-0.04720907765339086
-0.05098696960001316
-0.054948221518160825
-0.058699672944351584
-0.061848217707363776
-0.06400080392823816
-0.06480999073274431
-0.06428318435394272
-0.06259423406930933
-0.05991799982386705
-0.05642939585489866
-0.052303390691955234
-0.04771500715684659
-0.04283932236364578
-0.03785146771868815
-0.03292662892057453
-0.028219006852317614
-0.02371412370977084
-0.019316418461977437
-0.01492986753515351
-0.010458501647780285
-0.005806405810598415
-0.0008777193266141514
0.004423364208907675
0.010192596908433367
0.01652567659217086
0.023498246256820225
0.031020678380442555
0.03892183817318599
0.04702996414612183
0.0551732405180565
0.06317979721553887
0.07087770987284264
0.07809499983198993
0.0846596341427377
0.09039952556258024
0.09516555672584222
0.099004497401257
0.1020620946818265
0.104484805973763
0.10641903439100861
0.10801112875524904
0.10940738359590388
0.11075403915013698
0.11219728136283884
0.11388324188664392
0.11594883179737447
0.11845052494934885
0.12140825749321146
0.12484549997228554
0.1287744920080154
0.13320719878155102
0.13815562622121547
0.14363182100251384
0.1496478705481264
0.15621590302791377
0.16333501433558378
0.17088617951589613
0.17868766675095976
0.18655720670297804
0.19431257078132663
0.2017715711425631
0.20875206069042085
0.21507193307581385
0.2205491226968243
0.2250016046987202
0.22827593924317865
0.2304847111596292
0.2318853092512001
0.2327366638165952
0.2332979480987963
0.23382842663724132
0.23458740471853826
0.23583422837647847
0.2378282843920283
0.2408290002933366
0.24506438461581362
0.25046018613027216
0.2567735821919847
0.26375996040123295
0.27117474910546885
0.2787734173993282
0.2863114751246221
0.29354447287034036
0.3002280019726453
0.3061176945148822
0.3109946243155795
0.3148916723643137
0.317985660553089
0.32045513970311224
0.32247870138276663
0.3242349779076136
0.3259026423403876
0.3276604084910046
0.3296870309165566
0.33216130492131435
0.3352404784656234
0.33886106714262715
0.3428303296610019
0.34695393064789987
0.3510375754776471
0.35488701027175135
0.35830802189889555
0.36110643797494174
0.36308812686292535
0.36405899767306327
0.3638510982571525
0.3625719030691269
0.3604941559019972
0.3578928869915139
0.35504316732060287
0.35222010861936864
0.34969886336509093
0.3477546247822285
0.34666262684241717
0.34669814426446977
0.34810618455347453
0.3508015454717578
0.3544960369329189
0.3588985494044159
0.3637180141008837
0.368663402984134
0.3734437287631555
0.37776804489411525
0.3813454455803566
0.383885065772401
0.3851205983483613
0.38505406684493904
0.3838585224026938
0.3817246690869578
0.37884342860837616
0.3754056917795325
0.37160231851494996
0.3676241378310876
0.36366194784634526
0.35990651578105753
0.3565326020921968
0.3535292169044838
0.35076552045478426
0.34810864509873535
0.3454256922939181
0.34258373259984687
0.33944980567797683
0.3358909202916984
0.33177405430634654
0.3269661546891883
0.3213510452471843
0.3150156391392259
0.3081810515482163
0.3010707516454865
0.2939081777043052
0.2869167370998769
0.28031980630934317
0.2743407309117905
0.2692028255882368
0.26512937412164206
0.2623204098476837
0.2606875636539711
0.2599472394758214
0.2598121201486928
0.25999485760998536
0.26020807289903203
0.26016435615710903
0.2595762666274285
0.25815633265514004
0.25561705168733645
0.25169283063858305
0.246399842376874
0.23994959271928107
0.2325574798601454
0.22443888734247286
0.2158092327981581
0.20688391920776109
0.1978783186537907
0.18900777232068502
0.18048759049482435
0.17252038454820473
0.16514040394203994
0.15826234749707702
0.1517983376772491
0.14566046604842622
0.1397607932784223
0.13401134913698434
0.12832413249579802
0.12261111132848695
0.11678422271061771
0.11076122132782609
0.1045402651390752
0.09817796869004819
0.09173223463111171
0.0852609347145642
0.0788219097946447
0.07247296982752766
0.0662718938713339
0.06027643008611421
0.05454429573386189
0.04912830131859891
0.044011792661110306
0.03912638108007232
0.03440241409044015
0.02977020830910479
0.025160049454900725
0.020502192348596848
0.0157268609128998
0.010764248172454596
0.0055445162538487885
2.9927872532281574e-06
-0.0058483708695086095
-0.011939202422249537
-0.01819768871708511
-0.02455204749819625
-0.030930527407824704
-0.03726140798627501
-0.043472999671909526
-0.04949364380115512
-0.05525171260850029
-0.060679889736631826
-0.06577633031638029
-0.07059031796137138
-0.07517252393776874
-0.07957365040980226
-0.08384443043975591
-0.08803562798798259
-0.09219803791289322
-0.09638248597096293
-0.10063983669709496
-0.10501660860289866
-0.10947475572590622
-0.11390760273343026
-0.11820655163987286
-0.1222629971633414
-0.12596832672564579
-0.12921392045229813
-0.13189115117251166
-0.1338913844192029
-0.1351059784289932
-0.1354379599492247
-0.13498234999198855
-0.13399134365615925
-0.13272175298637645
-0.131430382730985
-0.1303740303420284
-0.1298094859752567
-0.1299935324901202
-0.13118294544977444
-0.13363449312107334
-0.1375866478711518
-0.14296572241512218
-0.1494363752725743
-0.1566551688945691
-0.16427865843587042
-0.17196339175494543
-0.17936590941396346
-0.1861427446787956
-0.1919504235190164
-0.1964454646079036
-0.19930498723612128
-0.20057138223060964
-0.20060051711342416
-0.1997584250670743
-0.19841113197777377
-0.19692465643543594
-0.19566500973367987
-0.19499819586982525
-0.19529021154489606
-0.1969070461636166
-0.20019331934917411
-0.20510019031008167
-0.2112330973915268
-0.21818570717464314
-0.2255516789442672
-0.2329247097623535
-0.2398986696882157
-0.24606746655828682
-0.2510250009126999
-0.2543651659952929
-0.2557020332116846
-0.2550362005311444
-0.2527159834202549
-0.2491020864437435
-0.24455520687003982
-0.23943603467127644
-0.2341052525232886
-0.22892353580561353
-0.224251552601492
-0.22044996369786687
-0.2178653498620477
-0.21656393300834093
-0.21635371998065497
-0.2170330757608331
-0.2184003580344206
-0.2202539171906654
-0.2223920963225186
-0.22461323122663404
-0.22671565040336716
-0.22849767505677712
-0.22976521886054502
-0.2304817971367995
-0.23075953214566758
-0.23071633772727074
-0.23047012042543213
-0.23013877948767844
-0.2298402068652378
-0.22969228721304188
-0.22981289788972498
-0.23031990895762317
-0.2313274832963248
-0.23286984513260164
-0.23490404888676586
-0.2373839957814217
-0.2402635918888975
-0.24349681587362115
-0.2470376713795729
-0.2508401548446657
-0.25485825541051527
-0.2590459549224402
-0.2633509032871407
-0.2675783076077061
-0.27139259614048006
-0.27445219800896786
-0.27641553504037847
-0.2769410217656193
-0.2756870654193052
-0.2723120659397521
-0.26647428025357334
-0.2578307653473969
-0.24606455524651696
-0.23144956797136132
-0.21485728672838897
-0.19718572576597637
-0.1793328962199667
-0.16219680611365977
-0.1466754603578511
-0.13366686075077286
-0.12406900597813329
-0.11877989161310727
-0.11866051466677142
-0.12366444652842751
-0.1328052716414245
-0.1450530610847643
-0.15937788282491677
-0.1747498017158263
-0.19013887949887637
-0.204515174802944
-0.21684874314436423
-0.22610963692693742
-0.2313003617442021
-0.23225521373306796
-0.2296906229552791
-0.22436555223898397
-0.21703896129979686
-0.20846980674079912
-0.19941704205253324
-0.19063961761302278
-0.18289648068774328
-0.1769465754296411
-0.17352842401362295
-0.1728333169150078
-0.17445838283195697
-0.1779709225451183
-0.18293823372260554
-0.18892761091999863
-0.19550634558034458
-0.2022417260341599
-0.20870103749941582
-0.21445156208156177
-0.2190697951647394
-0.222390753202949
-0.22453682723389198
-0.22564541253665993
-0.22585390127781219
-0.2252996825113735
-0.22412010864542076
-0.22245239484183907
-0.220433719616567
-0.21820125837300802
-0.21589022312162862
-0.21357821747426997
-0.21127728193604545
-0.2089958943282848
-0.20674252935978332
-0.20452565862680366
-0.20235375061307406
-0.20023527068978905
-0.19817868111560968
-0.19619244103666433
-0.1942851475794972
-0.19246974259741947
-0.19076423103461365
-0.18918690054241705
-0.18775603565963422
-0.18648991781253513
-0.18540682531485703
-0.18452503336780268
-0.1838628140600416
-0.18343843636771012
-0.18326911975084392
-0.18333823262050553
-0.1835887587032355
-0.18396131270888547
-0.18439650623477255
-0.18483494776568107
-0.18521724267386075
-0.18548399321902875
-0.18557579854836778
-0.18543325469652694
-0.18499832986135606
-0.18425973576013158
-0.18326328334734676
-0.18205825291597683
-0.18069392164646497
-0.17921956360671942
-0.17768444975211584
-0.1761378479254952
-0.1746290228571657
-0.17320723616490158
-0.17192089884365938
-0.17078811343078257
-0.16978907512062041
-0.16890158481894563
-0.1681034403189955
-0.16737243630147491
-0.16668636433455417
-0.16602301287387103
-0.16536016726252833
-0.16467560973109652
-0.16394760236094952
-0.16317259330730832
-0.16237032247300212
-0.16156205037977162
-0.16077322781881803
-0.1600314684492944
-0.15935634525097797
-0.15876729894003372
-0.15828378571774077
-0.1579252772704891
-0.157710799686837
-0.15764108232575585
-0.15769285511413386
-0.15784123549756723
-0.15806135640676508
-0.15832836625755015
-0.15861742895085695
-0.15890372387273258
-0.15916244589433665
-0.15936880537194237
-0.15949786079527997
-0.1595176680161624
-0.1593868735962755
-0.15906347774490598
-0.15850549615645337
-0.15767096001042838
-0.15651791597145626
-0.1550044261892737
-0.15308856829872994
-0.1507284354197873
-0.14788355245699752
-0.14457626163636245
-0.1409152880976241
-0.13701565239119406
-0.13299239055260412
-0.12896055410249338
-0.12503521004661264
-0.12133144087582967
-0.11796434456611968
-0.11504903457857471
-0.11269904040158694
-0.1109528058956407
-0.10974301837103902
-0.10899442058156736
-0.10863177076611943
-0.1085798426487055
-0.10876342543844456
-0.10910734157894532
-0.10953649999642576
-0.10997584285158456
-0.1103501982775848
-0.11057796066640845
-0.11056823739783003
-0.11022942705543642
-0.10946994370792232
-0.10819821690909606
-0.10632269169788322
-0.10375182859831394
-0.10039410361953702
-0.09615800825581472
-0.09095460003367416
-0.08482986511293904
-0.07802911815134171
-0.07081373788706423
-0.06344511854340024
-0.056184669828747424
-0.04929381693662899
-0.043034000545675744
-0.03766667681962334
-0.03345331740733282
-0.030651459432103928
-0.029296329837594927
-0.02908674952566632
-0.029693551141892666
-0.030787582816972355
-0.032039708166714954
-0.0331208062920367
-0.03370177177896986
-0.03345351469865554
-0.032046732408945795
-0.02915462647631282
-0.024683016132074395
-0.01888736515533264
-0.012052956047268831
-0.004465002518093564
0.0035913505129218856
0.011831026917483209
0.01996901935823419
0.027720394024994016
0.03480032379161281
0.040927032361668586
0.046008747737659034
0.050255345772396195
0.053903571009546646
0.05719023678375123
0.06035222522059511
0.0636264872366203
0.06725004253933903
0.07145997962720947
0.07649345578964478
0.08258493762905506
0.0897796982584548
0.09781522166392724
0.10640080768715846
0.11524582496079258
0.12405971090844156
0.13255197174465985
0.1404321824749737
0.147409986895857
0.15319509759473585
0.1575000444362338
0.16023961918102572
0.1616656376730218
0.16206190940617327
0.16171231266537672
0.16090079452649783
0.1599113708563503
0.1590281263127057
0.15853521434430018
0.15871685719081874
0.15985504498304604
0.1620498598383822
0.16509073091931534
0.1687367725459712
0.17274716782942662
0.17688116867171655
0.18089809576583718
0.18455733859573717
0.18761835543632402
0.18984067335346425
0.1909857449293241
0.19097335827750228
0.18999972331232123
0.18828880783906016
0.1860752593229686
0.18359544775555778
0.18108574632324337
0.17878253140734113
0.17692218258407363
0.1757410826245619
0.17547384032223395
0.1761913678236216
0.17767108713517363
0.17965988026158494
0.18190463240245322
0.1841522319522723
0.18614957050044864
0.1876435428312822
0.18838106177508704
0.1881091027614985
0.18657592867864226
0.18365652217282954
0.17945869456941255
0.1741152462347338
0.1677589807300527
0.16052270481151676
0.15253922843018816
0.14394136473203173
0.13486193005790437
0.125433743943577
0.11578969972875944
0.10607035571592942
0.096430701469545
0.08702732602440949
0.07801682161024416
0.0695557836516741
0.06180081076821417
0.05490850477429542
0.04903547067925181
0.0443383166873076
0.0409726879208701
0.038979883009874566
0.03818048860053473
0.03836992578046495
0.039343618832176526
0.04089699523309476
0.04282548565554795
0.044924523966754615
0.04698954722885352
0.04881599569886939
0.050199771769011164
0.05099622291955615
0.05117831003702253
0.05073281703380043
0.04964653101717645
0.04789671546146145
0.04542481656592145
0.04221377367941549
0.03825214696091607
0.03352780933675399
0.028028231994191688
0.021780824368255805
0.014894711894760444
0.007488308240420238
-0.0003206601606721496
-0.008415154107085529
-0.016678821630019023
-0.024995997993314707
-0.03325170569346424
-0.041331654459593505
-0.04912230086015082
-0.05652014630032796
-0.06344183942162127
-0.06980714254212132
-0.07553650521255627
-0.08055106421629056
-0.08477264356934247
-0.08812375452036436
-0.09052759555065157
-0.0919080523741452
-0.09219023823046489
-0.09139395297327782
-0.0897401197442493
-0.08747608565009712
-0.08484988503018531
-0.08211023945651375
-0.0795065577337316
-0.07728893589912601
-0.07570815722262438
-0.07501569220680027
-0.07546297969430112
-0.077162855613907
-0.0799242747525861
-0.0835166140560592
-0.08770993770268923
-0.09227499710348624
-0.09698323090209165
-0.10160676497480006
-0.10591841243054209
-0.10969167361088981
-0.1127012732561756
-0.11483915958028346
-0.11625929288638136
-0.11715188470890658
-0.1177078338149377
-0.11811872620420344
-0.11857683510906473
-0.11927512099452868
-0.12040723155825032
-0.12224503191421479
-0.12577014069566012
-0.13112075490089067
-0.13804735886309408
-0.14628901401905067
-0.15559228342242928
-0.16571123174380806
-0.1764074252707047
-0.18744993190751058
-0.19861532117556657
-0.20968767737762498
-0.22045860055219288
-0.23071652970205242
-0.24023221943416395
-0.24878029571252588
-0.25614288611806935
-0.26210961984861003
-0.266477627718898
-0.26905154216057786
-0.2696434972222102
-0.2680731285692727
-0.26416784729104265
-0.25784917370170574
-0.2492557333218673
-0.23856473801624306
-0.22596090126644
-0.21163643817099334
-0.1957910654453563
-0.17863200142185892
-0.16037396604977536
-0.1412391808953001
-0.12145694929665811
-0.10111121576128579
-0.07991387891506482
-0.05752643345808555
-0.03361787570735739
-0.007864703596720403
0.020049083322995178
0.0504319838840412
0.08358499530185332
0.11980161317482556
0.1593674187097742
0.20238594648086897
0.2485085459610247
0.29730928195112677
0.34835471763503073
0.4012039145796744
0.4554084327352176
0.5105123304347307
0.5660521643945553
0.6215569897139832
0.6764136174393137
0.7293931229954344
0.77993794379979
0.8276863808466857
0.8723373614322691
0.9136504387993276
0.9514457921335072
0.9856042265630279
1.0160671731588176
1.0428366889345835
1.0659751362839234
1.0854167869897846
1.100650211249642
1.1111405716109035
1.1164136565636993
1.1160558805408383
1.1097142839178447
1.0970965330128994
1.0779709200869108
1.0521663633435006
1.0195726340558449
0.9803008854032832
0.9349655804924839
0.8843173523334156
0.8291674598787525
0.7702943312090744
0.7084144993768331
0.6443553413714325
0.5789148993291908
0.5128594904561918
0.44692365495463343
0.38176522563399634
0.3178831596797532
0.2557223812370395
0.19569608952069617
0.1381857588151262
0.0835411384741502
0.03208025292133832
-0.015910598350356978
-0.06017684077828865
-0.10049568718126313
-0.13674307840813993
-0.16902110973759232
-0.1974986685947508
-0.22237636733526595
-0.24388654324511663
-0.2622932585408201
-0.27789230036925905
-0.2910111808077653
-0.30200098320104585
-0.3108488022227331
-0.3177060526536586
-0.32271902516088236
-0.3259803691820274
-0.3275741749254184
-0.3275759733700536
-0.3260527362656231
-0.3230628761324928
-0.31865624626172007
-0.31287414071505093
-0.30574932059741255
-0.29734358059643334
-0.28782509526739797
-0.27737538087275065
-0.2661673944456219
-0.25436553378979665
-0.24212563747977384
-0.22959498486073704
-0.21691229604852266
-0.20420773192969324
-0.19160290145840464
-0.1792281216479292
-0.1672593895992837
-0.1558747653825885
-0.14524374983868696
-0.1355272845790694
-0.1268777519859384
-0.11943897521217846
-0.11334621818133479
-0.10872618558766173
-0.10569698917535031
-0.10425733037464029
-0.10403976423419539
-0.1045963186679933
-0.10545827222959171
-0.10609530500650402
-0.10604206297019865
-0.1048459582662232
-0.1020552094439672
-0.0972188414566581
-0.0898867324032247
-0.07983328170141898
-0.06757487623451935
-0.05378199855425509
-0.0391259376161968
-0.024278788779766372
-0.009913453808224199
0.0032963591313040774
0.014676135467865059
0.023550554226655335
0.029243520783528612
0.03132087366198501
0.0301736644975025
0.02636768220363485
0.020467909290089667
0.013038521862730065
0.004642889623570769
-0.0041564241292230825
-0.012797662501317836
-0.020719875002242698
-0.027362929398492837
-0.032315464440675144
-0.035684124548004084
-0.03768929865830286
-0.038552182113244474
-0.038494776658344394
-0.03773989044296743
-0.03651113802032423
-0.035032940347469364
-0.033530524785306305
-0.03222992232335602
-0.03129203182453075
-0.03064179422963323
-0.030151835401095756
-0.02969558760520013
-0.029147289512075153
-0.028381986195691176
-0.027275529133869374
-0.02570457620827712
-0.023546591704423258
-0.020679847455036753
-0.017026419614842164
-0.0127267006421388
-0.007996495072480889
-0.0030517863678150223
0.001891387460160019
0.006616933849997175
0.010908705690507517
0.014550501320747151
0.017326064530031972
0.019019085063102684
0.019504311304032223
0.019001719805040916
0.017813010297030654
0.016239827961155258
0.0145837634288279
0.013146352781704914
0.012229077551704147
0.012133364720988917
0.013160586721974347
0.015612061356810075
0.019675917248236287
0.02509975574724634
0.03152394191994914
0.03858878628269552
0.0459345448020991
0.053201418895017866
0.0600295554285623
0.06605904672010306
0.07092993053725567
0.07428219009788624
0.07587759821839576
0.0759652497585165
0.07491602917651687
0.07310076638090915
0.07089023673045736
0.06865516103418758
0.06676620555136875
0.06559398199152157
0.0655090475144297
0.06688190473011563
0.0699792691648505
0.07464150386708551
0.08059942347630247
0.08758378800431105
0.0953253029131634
0.10355461911516252
0.11200233297287641
0.1203989862991095
0.12847506635693387
0.13596100585966275
0.14264737075209002
0.1485807885545664
0.153881745679742
0.15866106246780387
0.1630282130347654
0.16709269857044387
0.1709640473384921
0.17475181467637166
0.1785655829953633
0.18251496178058094
0.1866867612384201
0.191068798288012
0.19562207286559996
0.20030761149198242
0.20508646776179415
0.20991972234347803
0.21476848297929696
0.2195938844853461
0.2243570887515241
0.22901928474156635
0.23355183929875908
0.23797138884059935
0.24230719683089003
0.24658855433755053
0.2508447795023208
0.25510521698771993
0.25939923177271296
0.26375621138947614
0.26820557036107334
0.2727767502843887
0.2774796882025279
0.28223490328762074
0.2869373526469354
0.29148201841168075
0.29576390978686967
0.29967806305135064
0.3031195415577808
0.3059834357326384
0.3081648630762309
0.30955896816267664
0.3101054192639585
0.3099532902660177
0.30931321148952967
0.308395848631578
0.3074118944630635
0.3065720688287008
0.30608711864703525
0.3061678179104235
0.3070249676850421
0.308869396110897
0.3118453210869768
0.3157747842284383
0.3203826017437224
0.32539359659565753
0.3305326188209001
0.33552454552991545
0.34009428090699306
0.34396675621024825
0.3468669297716074
0.3485197869968255
0.3487297180807817
0.3476955445899598
0.345738379468373
0.34317939992647917
0.3403398102485561
0.33754084179270394
0.3351037529908448
0.3333498293487176
0.33260038344588116
0.33317675493571436
0.3353179133086246
0.33884211643968776
0.34343370555061586
0.34877699233391524
0.3545563155559101
0.36045523472612107
0.366139851513819
0.37129102315836215
0.3755985457419388
0.3787521905523606
0.3805056231181014
0.380947870630867
0.3802773747156421
0.3786925595378618
0.37639182446858654
0.37357354408449905
0.370436068167899
0.3671777217067151
0.36399680489449593
0.36109159313040806
0.3586179733539638
0.35650330102284955
0.3545982063676568
0.3527532384385612
0.35081892149135385
0.3486457549874543
0.3460842135939049
0.34298474718336186
0.3391977808341145
0.3345737148300634
0.32901816479984847
0.32274299945840706
0.31606561032770214
0.30930346251217866
0.3027739963219038
0.29679462727255734
0.2916827460854542
0.2877557186875184
0.2853308862113059
0.28472556499499435
0.28615266137138684
0.28923008706209385
0.2933652448303543
0.297965268981335
0.30243726902584045
0.3061883296802817
0.3086255108667032
0.30915584771277205
0.30718635055176585
0.30212400492259256
0.2935243221452571
0.28181328799180005
0.2677329759485397
0.25202588133261966
0.23543447466681797
0.21870120167953427
0.2025684833047788
0.1877787156821954
0.1750742701570512
0.16519749328021938
0.15874765284197534
0.15546204890808496
0.1547566965183816
0.1560470402107467
0.15874849972867217
0.1622764700212837
0.16604632124332933
0.16947339875516673
0.1719730231227922
0.17296049011781056
0.17194159155474023
0.1689829637259454
0.16436575465174716
0.15837152000988558
0.1512817906837242
0.14337807276223485
0.1349418475400289
0.12625457151732308
0.11759767639996827
0.10925256909943808
0.10147418781837102
0.09434893554409399
0.08789704757218192
0.08213857798504658
0.0770935560707216
0.0727819863228515
0.06922384844071432
0.06643909732921033
0.06444766309884986
0.06326945106578095
0.06289971424067609
0.06317225742894159
0.06385584834412225
0.06471905134332014
0.06553040598926717
0.06605842705031734
0.06607160450043645
0.06533840351922601
0.06362726449189642
0.060706603009289886
0.05638836652784368
0.050778179250669936
0.04410299722927062
0.03659013538551896
0.02846688384689497
0.019960507946514463
0.011298248223103942
0.0027073204210204885
-0.005585084509756977
-0.013351800413635692
-0.020385471057804624
-0.026616294900120435
-0.03203213696891214
-0.03662078840104639
-0.04036998763984557
-0.04326746279915389
-0.04530093166334729
-0.04645810168733815
-0.04672666999656443
-0.046094323386994304
-0.04456907537342819
-0.042304122861205815
-0.039515781637008016
-0.036420615513874516
-0.0332351779753842
-0.03017601217564389
-0.027459650939288704
-0.0253026167614852
-0.023921421807935394
-0.023532567914866104
-0.024314392707179226
-0.02616486811839929
-0.02885693297282001
-0.03216293948101626
-0.03585522952409185
-0.039706134653676554
-0.043487976091939634
-0.04697306473157484
-0.04993370113581169
-0.052142175538406985
-0.05340437724529472
-0.05378040954790468
-0.053446631393265526
-0.052579991461139855
-0.05135742810182306
-0.04995586933614152
-0.04855223285545228
-0.04732342602164219
-0.0464463458671291
-0.04609787909486383
-0.046425424564538166
-0.04734680178062902
-0.04867215791906038
-0.050211011002755546
-0.05177286872517074
-0.05316722845029212
-0.05420357721263518
-0.05469139171724956
-0.05444013833971409
-0.05325927339189687
-0.05099547655374237
-0.04779400053716434
-0.04394366407715779
-0.039734190140759296
-0.03545529136553609
-0.031396670059587475
-0.0278480182015409
-0.02509901744056088
-0.0234393390963372
-0.023158644159092086
-0.024500101436774765
-0.02732290179113655
-0.031296926521445764
-0.03609071630636457
-0.041372801495085515
-0.04681170210733196
-0.0520759278333621
-0.056833978033955034
-0.06075434174043061
-0.06350549765463628
-0.0647962071821071
-0.06467812516964444
-0.06337620463451912
-0.06111672634858656
-0.058125960754234186
-0.05463016796438004
-0.05085559776247288
-0.04702848960249079
-0.04337507260894867
-0.040121565576886495
-0.03747416249784392
-0.035463531857404806
-0.03402939966247018
-0.03311071319641297
-0.03264640941313662
-0.03257541493707619
-0.032836646063197174
-0.033369008756996
-0.03411139865450128
-0.03500270106227011
-0.035984403005323046
-0.037021590389185594
-0.03809187604012265
-0.03917297799525403
-0.04024260396222991
-0.041278451319231614
-0.042258207114971844
-0.0431595480686935
-0.043960140570170905
-0.044637640679710315
-0.045170869639502426
-0.04554959212383693
-0.04576952412312176
-0.045826476821850384
-0.045716434280607066
-0.04543541603189652
-0.044979431278754735
-0.0443444788947492
-0.04352654742397711
-0.04252161508106739
-0.041327453173174766
-0.039959151981832794
-0.038441457110624314
-0.03679920876675668
-0.03505723682796954
-0.03324036084253308
-0.0313733900292479
-0.02948112327744632
-0.02758834914699113
-0.025719845868276234
-0.0239008182394471
-0.02216079111392106
-0.020531754099601555
-0.019045715511669628
-0.017734673335836247
-0.01663061522834456
-0.015765518515967674
-0.015171350196010115
-0.014880066936307855
-0.014923615075226562
-0.015327979486757369
-0.01605827474492201
-0.0170439619405741
-0.018214041165975345
-0.019497502183917277
-0.02082332442772226
-0.022120350918724423
-0.023317065353250954
-0.024342786454227362
-0.02512693569719451
-0.025604566372680163
-0.025770287226661234
-0.02565443904185375
-0.025287836582290127
-0.024701282712676048
-0.02392556839838804
-0.022991472705476662
-0.021929762800664856
-0.020771193951347234
-0.01954650952559214
-0.018285817335417634
-0.017012417622280812
-0.015745420943173667
-0.014503865042904372
-0.013306775766953511
-0.012173167061474918
-0.011122040973293713
-0.010172387649908823
-0.009343185339491328
-0.008653400390884608
-0.008119480625073852
-0.007729654892900829
-0.007454375248363326
-0.007263804633069148
-0.007128094089296995
-0.0070173827600001
-0.0069017978888034105
-0.0067514548200042004
-0.006536456998573387
-0.006226895970153103
-0.005794886701280141
-0.005236192856731586
-0.004561831103614092
-0.00378306062473472
-0.0029111287035734276
-0.0019572707242819024
-0.0009327101716855718
0.00015134136871901988
0.0012836842107613114
0.0024531305675987575
0.0036465951299537863
0.004828065746366551
0.005946382995190333
0.006950130024511281
0.007787901881742665
0.00840830551362505
0.008759959766226635
0.008791495384942824
0.008451555014497063
0.007688793198939427
0.006458006724980626
0.004790139116269805
0.002767680768252262
0.00047410824973951465
-0.0020070899711297566
-0.004592413526891586
-0.007198350150748843
-0.009741375676582516
-0.012137954038944652
-0.014304537273059127
-0.016161642170768348
-0.01768213322670601
-0.018875162850213775
-0.01975060052018549
-0.020318229891319983
-0.02058752701952365
-0.020567882136509005
-0.02026867357466052
-0.019699267767035986
-0.018869019247365466
-0.017787196199126623
-0.016462065611914614
-0.014901180149101492
-0.013112065614872208
-0.011102235914084938
-0.008879193052268707
-0.0064504271356255125
-0.003823416371032458
-0.0010056270660362895
0.0019954863711418094
0.005166550560570138
0.008412078962560899
0.01158851212606761
0.014554134571877424
0.017167145695997532
0.019285659769655628
0.020767705939299552
0.02147122822659553
0.02125408552843197
0.01997405161691622
0.01750486039131069
0.013948650081873223
0.009577617598236974
0.00466793191360116
-0.0005043231236161443
-0.005663148789777844
-0.010532631486023788
-0.014836942738276897
-0.01830033919723944
-0.020647162638388592
-0.021616343377357156
-0.02116084372621858
-0.019396853097950494
-0.016444753779385573
-0.012425013182131864
-0.007458183842582761
-0.0016649034219065155
0.00483410529394486
0.011918034394242955
0.01946599084347301
0.027350760381944766
0.035349705917317883
0.043165663260015794
0.05049940724710596
0.05705164261922932
0.06252300286682237
0.06661403687563534
0.06902520840664475
0.06945689609604103
0.0676093934552308
0.06321465408281102
0.0565077623627094
0.04812605079295458
0.03871801827869889
0.02893207860031398
0.01941656041339975
0.010819707248768358
0.003789677512450837
-0.0010254555142918398
-0.002977703674990978
-0.0014575088470880349
0.003514043205645412
0.011399576946589884
0.021646445086010123
0.03370191520938107
0.04701316977739589
0.0610273061259804
0.07519133646626498
0.08895218788461483
0.1017567023426049
0.11308738000237255
0.12280368435621095
0.1310683958916809
0.13805444301763645
0.14393497997911806
0.14888338685732164
0.15307326956963266
0.15667845986959736
0.1598730153469332
0.16283121942754544
0.16572319368016764
0.1686415128869238
0.17161223283988009
0.17465946921221542
0.17780756351330018
0.18108108308866416
0.1845048211200102
0.18810379662522675
0.1919032544583622
0.19592866530963784
0.200203304586816
0.20470608149923672
0.20937694962298545
0.21415475504359469
0.21897856968277105
0.2237876028651521
0.22852093601852616
0.2331177879736026
0.23751760339727299
0.24166005279258937
0.24548561030303576
0.2489460403540204
0.2520032867519939
0.2546198739836199
0.25675855237172845
0.2583822980753218
0.2594543130895823
0.25993802524585546
0.25979708821166925
0.25899538149071666
0.25750250684203674
0.2553977894779042
0.25286162931060635
0.2500784150853388
0.24723276138347833
0.24450950862256499
0.24209372305631638
0.24017069677462116
0.23892594770354159
0.2385452196053126
0.23920346877165669
0.2408474761319272
0.24320888206309108
0.2460111492559071
0.2489779662373066
0.2518332473703881
0.2543011328544321
0.25610598872488344
0.2569724068533652
0.2566245427720706
0.2548027319277277
0.251527808599854
0.24708488119445854
0.24176963845053148
0.23587757975935528
0.22970401516449876
0.22354406536182658
0.21769266169949808
0.21244454617795291
0.20809427144993675
0.20492391574943045
0.20293869930104633
0.2018702164124107
0.20143823341884634
0.20136232730798292
0.20136188571973027
0.20115610694629227
0.2004639999321731
0.1990043842741539
0.1964958902213193
0.19266807653287896
0.1875115143526916
0.18128087468268803
0.17424237455631397
0.16666204165931908
0.1588057143297444
0.15093904155790935
0.14332748298644177
0.1362363089102572
0.1299306002765508
0.1246663243969496
0.1204803647552752
0.11718266634884614
0.11457248899556198
0.11244890316560167
0.11061078998144747
0.10885684121787381
0.1069855593019359
0.10479525731299208
0.10208405898268186
0.09865625523853311
0.09447885385299139
0.08969143915866372
0.08444173676192794
0.07887728292145445
0.07314542454819424
0.0673933192054037
0.061767935108616875
0.056416051125672516
0.05148425677669717
0.04711623313392241
0.043376362189085874
0.04022904648151032
0.03766285852680953
0.03566941659705682
0.034239472601589514
0.03336291208702417
0.033028754237251
0.03322515187342753
0.03393939145398662
0.035154570389890685
0.03675971683288997
0.03853938743370869
0.04027186204313418
0.04173455414923216
0.04270401087734075
0.04295598676355469
0.04226566507519717
0.0404074364903528
0.03715482532437311
0.03229077023888163
0.025899454996766262
0.018408027003553755
0.010261435506901697
0.0019037633917373979
-0.006221772819735452
-0.013672822968040337
-0.020007903256430648
-0.02478639625088304
-0.027568550880105076
-0.02793009278118716
-0.02589783797284987
-0.02202408032716903
-0.01689157705350891
-0.011083951723960497
-0.005185694273346614
0.00021783900078974246
0.004540425438170792
0.007194976015798139
0.007593535347946212
0.005161358214076907
-0.00022183459263123984
-0.008133963882083178
-0.018121989989745218
-0.02973373961379587
-0.04251910623743089
-0.05605128076115423
-0.0698335077036803
-0.08333682119327776
-0.09602780598848634
-0.10737820791246623
-0.11718198913799491
-0.12562769399984874
-0.13292368296978416
-0.13927386714982223
-0.144877708272271
-0.14993021869974515
-0.15462196142512552
-0.1591390500715811
-0.16366314889258538
-0.1683658685546086
-0.17321397427486207
-0.17791913769392748
-0.18217276927443699
-0.1856618301093198
-0.18806883192178062
-0.1890718370653154
-0.18834445907629999
-0.1855558768629461
-0.18037083593115613
-0.1724546133260612
-0.16165559580717415
-0.14805792736512513
-0.1317570146856167
-0.11284381508463881
-0.09141955729144251
-0.06782919300194482
-0.042273724405641866
-0.014891655246822382
0.014145593861426088
0.04463844896468974
0.07654360588612294
0.1100329458289699
0.1452622519292949
0.18235439045424837
0.22139931080232644
0.26245404550313134
0.30554271021746765
0.35065650373747886
0.39775370798634824
0.44675748211739014
0.49746556089516936
0.5495185320504653
0.602515342610489
0.6560220227335172
0.7095716857090381
0.7626645279578947
0.8147678290319517
0.8653159516144721
0.9137103415197884
0.9593182090220331
1.0014153747332526
1.0391698921149162
1.0719238362001071
1.0992521708859135
1.1207786509341322
1.1361736080983775
1.1451539511239395
1.1474831657478637
1.1429713146989364
1.1314793102463687
1.1131152553597325
1.0883163733530206
1.0575877277784376
1.0214809591798444
0.9805942850929006
0.9355725000450165
0.8871069303905839
0.8359352988172412
0.7828418598397275
0.7286519866660984
0.6739658274781362
0.6190380545996892
0.5641393925809259
0.509587142963755
0.45574518428165844
0.4028855721118297
0.3507331585556931
0.2992000995199008
0.24820981129685799
0.19766673673586777
0.14770183263988246
0.09879200950871726
0.05142023866621226
0.006045787599976846
-0.03689578003874913
-0.0769926044351952
-0.11385652961080857
-0.14712310342352894
-0.17645157756755958
-0.20152855660149158
-0.22226973382920312
-0.2389252932931103
-0.25179499278620276
-0.26120229393787575
-0.2674943622138276
-0.27104206691616406
-0.2722399811833175
-0.27150638199009086
-0.2692832501476558
-0.26585606278182805
-0.2613905178736874
-0.25604729300111473
-0.24995931913660469
-0.24324876146169516
-0.23602701936700593
-0.22839472645222614
-0.22044175052608384
-0.2122471936063976
-0.20387939192005303
-0.19539605559718815
-0.1868530811290618
-0.1783098134260581
-0.1698160947570605
-0.1614110016000169
-0.15312284464190787
-0.1449691687788117
-0.13695675311587058
-0.12908161096726167
-0.12132898985626638
-0.11367371314581246
-0.10610326957517108
-0.09863249571125429
-0.0912689601175953
-0.08400946556681592
-0.07684004904059963
-0.06973598172967888
-0.06266176903387333
-0.05557115056204656
-0.04840730676089585
-0.04111923125098499
-0.03373387214760454
-0.026379468030792677
-0.019194533757306058
-0.012318465301087107
-0.0058915397532827395
-5.491532222389947e-05
0.005049368666557464
0.00927839177033659
0.012488352429199469
0.014536109875340545
0.015399590915664937
0.015264066186964624
0.014334286289208586
0.012814120705176107
0.01090655780044562
0.008813704823413131
0.0067367879052725385
0.004876152060024733
0.0034312611844771884
0.0025994233292645948
0.002468407892075135
0.0029349969012426886
0.0038759112416016685
0.0051669906807929895
0.00668319386926575
0.008298598340273019
0.009886400509873834
0.011318915676936069
0.012467578023130357
0.013203964850148455
0.013493117410256293
0.013468344741024006
0.013279677711786043
0.013076266074678865
0.01300637846464938
0.013217402399447693
0.013855844279628698
0.01506735621274036
0.016996816485850556
0.01978706987198744
0.02346236664647204
0.02782979268053224
0.03267259939304994
0.037800200730943416
0.04302053665166378
0.048126496970034606
0.052910926340795514
0.05716662425860605
0.06068634505805092
0.06326399198882912
0.0648229919276894
0.06553072082052443
0.06558150419893315
0.0651696224344411
0.06448931073848792
0.06373475916243394
0.06310011259756541
0.06277947077507787
0.06296688826610539
0.06385541464629187
0.06552446691575302
0.06783417305587215
0.07061961491308028
0.07371582917372772
0.07695780736409294
0.08018049585036473
0.0832187958386622
0.0859075633750173
0.08808160934538191
0.0895766223900588
0.09034778176394644
0.09058673199206005
0.09051286368405714
0.0903455222895042
0.09030400809789943
0.09060757623865298
0.09147543668109469
0.09312675423448458
0.09578064854799234
0.09965523337305197
0.10483186519572835
0.11111455352511954
0.11827369346724587
0.12607963496803787
0.13430268281334645
0.1427130966289531
0.15108109088054922
0.15917683487374634
0.16677045275408747
0.1736405906965282
0.17967882938645893
0.184997811824182
0.1897391440048615
0.19404445266458095
0.19805538492213753
0.20191360827905463
0.20576081061959337
0.20973870021072458
0.21398900570216065
0.21865308840150652
0.22380487421013212
0.22937447259057267
0.2352735442070653
0.24141377010657342
0.24770685171879842
0.25406451085615067
0.26039848971378354
0.26662055086956304
0.27264247728408125
0.2783762523150967
0.28376875867844187
0.2888431649738197
0.2936327427670804
0.29817078400678126
0.3024906010242236
0.3066255265334214
0.31060891363111404
0.3144741357967802
0.3182545868926108
0.32198360859553377
0.32567881960296396
0.3293225555404873
0.33289236792892896
0.3363658286718234
0.3397205300554328
0.3429340847487567
0.34598412580350846
0.34884830665412764
0.35150430111779074
0.3539299289329808
0.3561337055584751
0.3581947184285297
0.3602019574070167
0.3622444327405453
0.3644111750584391
0.36679123537274755
0.36947368507825684
0.3725476159524649
0.3761021118251918
0.38022593072307403
0.3849433166838015
0.3901263537424115
0.395625211350084
0.40129007934071825
0.40697116793095417
0.41251870772014443
0.417782949690378
0.4226141652064622
0.4268626460159299
0.4303789165824911
0.4330806847495612
0.4350482234154826
0.43638593163548606
0.43719822884751747
0.4375895548722584
0.4376643699131094
0.4375271545561972
0.4372824097703796
0.43703465690723486
0.4368883725029849
0.4369243156396401
0.43716432550823614
0.43762126947852503
0.43830803530298096
0.43923753111680375
0.440422685437923
0.44187644716698893
0.44361178558738157
0.4456416903652043
0.4479790776254149
0.4505971674408853
0.4533680158102712
0.45614782049387664
0.45879279963472974
0.46115908434053565
0.4630925926196355
0.46444655443651456
0.46508258818618137
0.46486228815758085
0.4636473853456765
0.46137936446724576
0.45820825170387985
0.4543177103264063
0.4498913794995858
0.44511287428212093
0.4401657856266502
0.43523368037975513
0.4305001012819501
0.4261485669676916
0.4223624403362594
0.41924756959790255
0.4167018712056703
0.41458873172541
0.4127715136169088
0.411113555233883
0.40947817082399585
0.4077286505288488
0.40572826038397247
0.4033402423188484
0.4004279101950253
0.39692252766790864
0.39294251836539223
0.38863822474629767
0.384159965163395
0.37965803386339303
0.3752827009869277
0.37118421256858763
0.367512790536886
0.3644186327142839
0.3620518208253195
0.3604829470959505
0.35955795699929466
0.3590833627059845
0.3588656522805784
0.3587112896815892
0.35842671476145216
0.357818343266552
0.35669256683721307
0.3548557530076842
0.3521143059449666
0.34833977180000125
0.3435927714855624
0.33796800759409934
0.33156015861198174
0.3244638789195307
0.31677379879100576
0.30858452439459133
0.29999063779242335
0.29108669694057127
0.2819672453149838
0.27273989619650496
0.26355124826886683
0.25455510822098293
0.2459052586357056
0.23775545798981165
0.23025944065402965
0.2235709168930264
0.21784357286539374
0.2132310706236792
0.2098870310114167
0.2078709549252975
0.20695407548450812
0.206852669349844
0.2072829890760522
0.2079612631118176
0.2086036957997506
0.20892646737641699
0.20864573397230393
0.2074776276118494
0.20513830142342512
0.20145086801984885
0.19657446849195565
0.19073403218039847
0.1841544643197569
0.17706064603856403
0.1696774343592757
0.1622296621982982
0.15494213836597487
0.1480396475665768
0.14174693127400942
0.13622583899448615
0.1314353948683502
0.12729378319651177
0.12371916417380509
0.12062967388901297
0.11794342432485609
0.11557850335798348
0.1134529747589928
0.11148487819241967
0.10959223025708738
0.10769800279388586
0.10574164041949219
0.10366597548951077
0.10141356786327814
0.098924412759571
0.09613865883005776
0.0929967700733529
0.08943921654063174
0.08540647433564796
0.08083903189532736
0.075723928553601
0.07020659735823945
0.06446613757461805
0.05868165452068753
0.05303225956696592
0.04769707013653399
0.04285520970504844
0.03868580780072656
0.03536800000435988
0.033080922349145656
0.03193380915859213
0.031791543387745674
0.032465654984486794
0.033767679949259964
0.03550916042398953
0.03750164944992053
0.03955671336573151
0.0414859251556212
0.04310086385635164
0.04421311638096965
0.04467760644251247
0.04450485076216931
0.04374028028518665
0.04242933200937564
0.04061744898511958
0.038350080315369545
0.03567268115564187
0.03263071271402531
0.029269642251172633
0.02563494336678642
0.02178781419173184
0.017847440064909126
0.01394637829849615
0.010217192257238841
0.006792451358446536
0.003804731072008011
0.001386612920368735
-0.00032931552145233113
-0.0012104606258680015
-0.0011242230453839732
2.004881181636234e-06
0.0020134693200427487
0.004701572121589424
0.007857721188782203
0.01127333047714766
0.014739819994782313
0.018048615802350676
0.02099115001308443
0.023358860792784476
0.024943192400509104
0.025592759792140228
0.02537874594973058
0.024426496674747077
0.022861363821225895
0.020808705295771075
0.018393885057552108
0.015742273118314387
0.012979245542364945
0.010230184446580241
0.007620478000406229
0.005253898013595201
0.003147732699426333
0.0012976539114863943
-0.00030066044407022104
-0.0016515264085203308
-0.0027592539705725283
-0.003628147066367473
-0.004262503579477097
-0.0046666153409056004
-0.0048447681290886314
-0.004807018026703599
-0.004587153507766416
-0.004225054170520085
-0.003760593564979259
-0.003233639188590617
-0.0026840524862321935
-0.002151688850213747
-0.0016763976202781219
-0.0012980220835980515
-0.0010563994747789015
-0.0009829042645385835
-0.0010731988625013351
-0.0013135175256952947
-0.0016900884063387328
-0.0021891336040820945
-0.002796869166007649
-0.0034995050866289843
-0.004283245307891705
-0.00513428771917328
-0.006038824157282542
-0.006973633336499096
-0.00787468019582532
-0.008666363041846451
-0.009272230368375092
-0.009616836678060245
-0.009624783749949888
-0.00922067102098242
-0.008329095585986167
-0.006874652197678313
-0.004781933266670454
-0.0020226623308789334
0.0012213638728423622
0.004709845208210085
0.008202481418653554
0.011458974589711672
0.01423902914903323
0.0163023518663768
0.01740865185361045
0.01731764056471235
0.015789031795769883
0.012670660780719163
0.008213905845531465
0.002785595884436304
-0.003247428617915789
-0.009518324834764162
-0.015660247597238757
-0.021306349394359606
